TimeStamp,ECG Data,GSR Data,PPG_Red Data,PPG_IR Data
4,0,0,0,0
6,509,145,0,57618
9,511,144,73923,57618
11,511,143,73923,73901
13,512,143,90293,106704
16,512,143,106631,123127
18,512,142,123085,123127
21,511,142,132857,124795
23,511,142,132659,124796
26,510,141,132659,124797
28,510,141,132660,124792
31,510,141,132658,124792
33,510,140,132658,124799
35,509,140,132666,124794
38,508,139,132686,124802
40,508,139,132673,124797
44,508,139,132687,124804
46,508,138,132680,124799
49,509,138,132701,124800
51,511,138,132683,124810
53,514,137,132700,124810
56,516,137,132688,124807
58,517,137,132699,124806
61,518,136,132720,124813
63,519,136,132720,124816
66,519,136,132721,124815
68,519,135,132725,124816
71,519,135,132734,124822
73,518,135,132738,124819
75,517,135,132734,124818
78,516,134,132733,124828
80,516,134,132749,124820
83,514,134,132758,124821
86,512,134,132769,124830
89,509,134,132767,124834
91,508,133,132771,124827
93,507,133,132780,124826
96,505,133,132780,124840
98,504,133,132804,124844
101,503,132,132798,124838
103,503,132,132803,124841
106,502,132,132804,124845
108,502,132,132823,124838
111,501,132,132822,124844
113,501,132,132838,124852
115,502,132,132834,124856
118,502,132,132844,124857
120,502,131,132846,124861
123,503,131,132859,124870
125,503,131,132855,124863
129,502,131,132865,124865
131,502,131,132883,124866
133,502,131,132886,124872
136,502,131,132891,124880
138,502,131,132894,124874
141,502,130,132891,124885
143,503,130,132908,124883
146,503,130,132900,124890
148,503,130,132912,124885
151,503,130,132920,124886
153,502,130,132935,124887
155,499,130,132929,124891
158,493,130,132950,124892
160,478,129,132945,124904
163,468,129,132959,124894
165,453,129,132957,124903
168,437,129,132961,124903
171,410,129,132958,124890
173,396,129,132960,124907
176,388,129,132967,124909
178,386,129,132989,124910
181,393,128,132985,124913
183,426,128,132989,124918
186,458,129,132993,124903
188,505,129,133008,124920
191,555,128,133015,124925
193,608,129,132999,124922
195,654,128,133008,124930
198,679,128,133019,124931
200,702,128,133036,124929
203,698,129,133030,124915
205,686,128,133040,124941
208,665,129,133045,124945
210,656,129,133050,124941
212,645,129,133054,124952
216,617,128,133055,124916
218,602,128,133064,124959
221,582,129,133064,124950
223,557,129,133075,124951
226,537,129,133084,124951
228,506,129,133087,124959
231,496,129,133091,124958
233,486,128,133104,124959
235,478,128,133103,124967
238,470,128,133100,124949
240,467,128,133106,124961
243,468,128,133110,124959
245,470,128,133104,124965
248,473,128,133121,124965
250,477,128,133125,124975
252,479,128,133123,124970
256,480,128,133134,124975
258,480,128,133125,124977
261,481,128,133147,124976
263,482,128,133158,124978
266,482,128,133139,124981
268,482,128,133166,124980
271,483,128,133152,124980
273,484,128,133167,124987
275,484,128,133167,125000
278,485,128,133180,124987
280,485,128,133174,124987
283,485,128,133188,124990
285,486,128,133196,124993
288,486,128,133183,124996
290,486,128,133197,124998
292,487,128,133195,124998
295,489,128,133213,124998
297,489,128,133206,124996
301,490,128,133219,124996
303,490,128,133223,124996
306,490,128,133235,125006
308,491,128,133229,125019
311,492,128,133229,125021
313,492,128,133242,125016
315,493,128,133246,125016
318,494,128,133263,125036
320,494,128,133263,125024
323,493,128,133271,125030
325,494,128,133276,125030
328,494,128,133286,125034
330,494,129,133292,125036
332,495,128,133292,125045
335,495,128,133301,125046
337,496,129,133294,125052
340,497,129,133313,125049
343,497,129,133320,125049
346,498,129,133320,125049
348,498,129,133320,125058
351,498,129,133331,125054
353,499,129,133337,125060
355,500,129,133337,125067
358,500,129,133326,125058
360,499,129,133326,125048
363,499,129,133325,125044
365,499,129,133289,125044
368,500,129,133283,125037
370,501,129,133243,125014
372,502,129,133224,125014
375,501,129,133224,124983
377,502,129,133189,124977
380,502,129,133128,124961
382,503,129,133091,124961
386,503,129,133045,124931
388,503,129,133045,124919
391,502,129,133023,124903
393,502,130,132945,124903
395,502,130,132918,124899
398,503,130,132918,124859
400,503,130,132871,124844
403,504,130,132837,124834
405,504,130,132770,124834
408,504,130,132770,124816
410,505,130,132715,124816
412,505,130,132693,124802
415,505,130,132693,124785
417,505,130,132621,124771
420,506,130,132611,124771
422,506,130,132598,124766
425,506,130,132534,124748
428,506,130,132534,124743
431,506,130,132549,124743
433,505,131,132523,124737
435,505,131,132518,124726
438,505,131,132518,124713
440,505,131,132494,124714
443,505,131,132488,124714
445,505,131,132479,124706
448,505,131,132479,124707
450,505,131,132453,124707
452,506,131,132453,124701
455,506,131,132450,124704
457,507,132,132456,124697
460,508,132,132447,124697
462,508,132,132451,124708
465,508,132,132451,124697
467,508,132,132451,124696
471,509,132,132443,124696
473,508,132,132468,124698
475,508,132,132461,124702
478,508,132,132461,124702
480,509,132,132461,124702
483,509,132,132457,124702
485,509,132,132481,124702
488,510,132,132481,124710
490,510,132,132471,124705
492,510,132,132478,124705
495,509,133,132494,124710
497,510,132,132494,124703
500,510,132,132475,124705
502,511,133,132482,124705
505,510,133,132475,124708
507,510,133,132494,124713
510,510,133,132507,124699
513,510,133,132509,124710
515,510,133,132490,124715
518,510,133,132507,124711
520,510,133,132487,124711
523,510,133,132504,124705
525,510,133,132480,124707
528,510,133,132498,124710
530,509,133,132472,124702
532,509,133,132490,124699
535,508,133,132473,124703
537,509,133,132468,124692
540,508,133,132470,124698
542,510,133,132475,124690
545,510,133,132461,124687
547,510,133,132455,124687
550,509,134,132463,124686
552,510,134,132459,124684
555,511,134,132462,124687
558,511,133,132436,124688
560,511,134,132461,124678
563,511,134,132454,124682
565,511,134,132456,124688
568,511,133,132444,124686
570,511,134,132443,124676
572,511,134,132442,124676
575,511,133,132435,124671
577,510,134,132437,124677
580,510,134,132435,124679
582,510,134,132429,124674
585,510,134,132436,124672
587,511,134,132442,124670
590,511,134,132422,124686
592,511,134,132437,124670
594,511,134,132445,124672
598,511,135,132436,124677
600,511,134,132452,124680
603,511,134,132442,124684
605,511,134,132458,124686
608,511,134,132454,124673
610,511,134,132472,124686
612,512,134,132469,124687
615,513,134,132483,124689
617,513,134,132469,124697
620,513,134,132485,124688
622,512,134,132490,124697
625,512,134,132503,124699
627,512,134,132501,124700
630,511,134,132504,124700
632,511,134,132510,124702
634,511,134,132511,124704
637,511,134,132525,124708
640,511,134,132528,124713
643,512,134,132535,124706
645,512,134,132536,124707
648,512,134,132540,124705
650,512,134,132541,124715
652,512,134,132540,124710
655,512,134,132548,124711
657,511,134,132542,124700
660,512,134,132550,124713
662,512,134,132550,124716
665,512,134,132554,124714
667,512,134,132547,124708
670,512,134,132543,124714
672,511,134,132549,124713
674,511,134,132551,124715
677,510,134,132553,124714
679,511,134,132558,124716
683,511,134,132555,124717
685,511,134,132560,124721
688,511,134,132552,124711
690,511,134,132557,124710
692,511,134,132557,124711
695,511,134,132552,124716
697,511,134,132559,124715
700,511,134,132556,124719
702,510,134,132565,124719
705,510,134,132567,124719
707,510,134,132557,124706
710,509,134,132563,124713
712,509,134,132552,124709
714,509,134,132562,124710
717,509,134,132563,124707
719,510,134,132562,124714
722,509,133,132562,124709
724,510,133,132558,124712
728,510,133,132565,124712
730,510,133,132571,124711
732,510,133,132563,124710
735,509,133,132571,124707
737,509,133,132565,124707
740,508,133,132580,124710
742,508,133,132570,124705
745,508,133,132572,124718
747,510,133,132579,124717
750,512,133,132571,124717
752,515,133,132580,124706
754,517,132,132576,124734
757,518,132,132581,124710
759,519,132,132584,124710
762,520,133,132592,124724
764,520,133,132588,124722
768,520,132,132588,124719
770,520,132,132595,124722
772,519,133,132595,124722
775,518,133,132605,124732
777,517,132,132606,124725
780,517,133,132603,124725
782,516,133,132603,124725
785,514,133,132617,124730
787,513,133,132631,124730
790,512,133,132628,124730
792,509,133,132637,124743
794,507,133,132637,124752
797,506,133,132647,124748
799,506,133,132659,124748
802,506,133,132667,124750
804,505,132,132667,124754
807,505,132,132672,124761
809,505,133,132686,124761
812,505,133,132696,124768
815,505,133,132696,124769
817,505,132,132699,124770
820,505,132,132715,124779
822,505,132,132729,124779
825,505,132,132731,124780
827,505,132,132734,124782
830,505,133,132734,124782
832,505,132,132734,124782
834,505,132,132746,124794
837,505,132,132763,124794
839,505,132,132761,124794
842,505,132,132773,124791
844,504,132,132773,124803
847,504,132,132780,124802
849,504,132,132786,124802
851,503,132,132798,124802
855,501,132,132798,124804
857,494,132,132808,124811
860,488,132,132820,124811
862,472,132,132820,124810
865,460,131,132804,124810
867,444,131,132807,124813
870,428,131,132831,124814
872,400,131,132831,124825
874,388,131,132842,124823
877,385,131,132854,124823
879,387,131,132854,124821
882,415,131,132861,124828
884,448,130,132861,124833
887,494,131,132873,124832
889,560,131,132883,124834
891,613,130,132883,124828
894,645,131,132884,124828
897,674,130,132889,124833
900,708,130,132889,124841
902,708,130,132895,124849
905,695,130,132910,124848
907,680,130,132910,124843
910,670,130,132918,124843
912,657,130,132923,124844
914,644,130,132921,124852
917,611,130,132921,124854
919,592,130,132929,124854
922,567,130,132923,124846
924,546,130,132950,124855
927,529,130,132950,124864
929,500,130,132952,124860
931,492,129,132956,124860
934,484,129,132974,124867
936,477,129,132974,124870
940,469,129,132971,124871
942,469,129,132987,124877
945,468,129,132980,124877
947,473,128,132985,124883
950,475,128,132993,124883
952,477,128,133016,124891
954,479,128,133016,124890
957,480,128,133007,124891
959,482,128,133018,124891
962,483,128,133013,124891
964,483,128,133021,124895
967,484,128,133021,124892
969,485,128,133046,124897
971,486,127,133024,124897
974,486,127,133031,124900
976,486,127,133031,124898
979,487,127,133046,124906
982,487,127,133074,124906
985,487,127,133058,124902
987,487,127,133068,124913
990,487,127,133060,124909
992,487,126,133082,124916
994,487,126,133078,124915
997,488,126,133092,124916
999,488,126,133088,124929
1002,489,126,133110,124928
1004,490,126,133099,124929
1007,490,126,133116,124923
1009,491,125,133106,124932
1011,492,125,133125,124934
1014,493,125,133129,124939
1016,493,125,133148,124944
1019,494,125,133142,124950
1021,494,125,133150,124950
1025,494,124,133165,124951
1027,495,124,133163,124955
1030,495,124,133183,124954
1032,495,124,133187,124965
1034,495,124,133191,124964
1037,496,124,133210,124962
1039,496,124,133207,124968
1042,496,124,133214,124975
1044,496,124,133225,124974
1047,497,124,133227,124975
1049,497,124,133232,124986
1051,496,124,133240,124984
1054,498,124,133230,124984
1056,498,123,133245,124984
1059,499,123,133237,124985
1061,499,123,133221,124981
1064,500,123,133220,124970
1067,500,123,133194,124963
1070,501,123,133192,124955
1072,501,123,133167,124941
1074,501,123,133143,124933
1077,501,123,133119,124920
1079,501,123,133083,124907
1082,501,123,133050,124891
1084,501,123,133020,124876
1087,502,123,132985,124863
1089,502,123,132958,124850
1091,502,122,132912,124838
1094,502,123,132887,124824
1096,503,122,132841,124815
1099,503,122,132802,124792
1101,503,122,132779,124785
1104,503,122,132736,124777
1106,503,122,132716,124759
1110,503,122,132678,124751
1112,504,122,132655,124740
1114,505,121,132630,124723
1117,505,121,132594,124717
1119,505,121,132577,124707
1122,505,121,132551,124701
1124,505,121,132532,124693
1127,505,121,132514,124676
1129,505,120,132499,124680
1131,505,120,132486,124672
1134,505,120,132472,124649
1136,505,120,132469,124662
1139,505,120,132453,124661
1141,506,120,132440,124663
1144,506,120,132436,124644
1146,506,120,132421,124654
1149,506,120,132424,124648
1152,506,120,132433,124630
1154,507,120,132421,124653
1157,508,120,132426,124659
1159,508,119,132417,124653
1162,508,119,132417,124651
1164,508,120,132421,124651
1167,508,119,132426,124647
1169,508,119,132427,124650
1171,508,119,132427,124651
1174,509,119,132439,124653
1176,509,119,132436,124650
1179,510,119,132446,124646
1181,510,119,132449,124663
1184,510,119,132454,124665
1186,511,119,132463,124662
1189,511,119,132470,124666
1191,512,118,132472,124664
1193,512,118,132492,124666
1197,513,118,132477,124668
1199,512,118,132482,124669
1202,512,118,132498,124669
1204,511,118,132511,124669
1207,511,118,132508,124669
1209,511,118,132511,124668
1211,512,118,132502,124668
1214,511,118,132516,124679
1216,511,118,132511,124698
1219,511,118,132522,124688
1221,511,117,132512,124671
1224,511,117,132517,124671
1226,510,117,132518,124673
1229,510,117,132518,124686
1231,509,117,132514,124669
1233,509,117,132506,124669
1236,509,117,132507,124674
1239,509,117,132506,124662
1242,508,117,132512,124664
1244,508,117,132500,124664
1247,508,117,132506,124661
1249,508,117,132507,124659
1251,508,117,132507,124676
1254,509,117,132494,124667
1256,509,117,132491,124667
1259,509,117,132506,124664
1261,509,117,132506,124665
1264,509,117,132505,124664
1266,509,117,132503,124664
1269,509,117,132507,124665
1271,509,117,132501,124665
1273,509,117,132501,124664
1276,509,117,132497,124666
1278,509,117,132505,124666
1282,509,117,132508,124665
1284,509,117,132503,124658
1287,510,117,132503,124658
1289,510,117,132503,124670
1291,510,117,132510,124660
1294,510,117,132513,124662
1296,511,117,132506,124662
1299,511,117,132509,124665
1301,511,117,132509,124667
1304,511,117,132519,124669
1306,511,117,132529,124669
1309,510,117,132534,124674
1311,510,117,132534,124672
1313,510,117,132532,124677
1316,510,117,132555,124677
1318,510,117,132555,124683
1321,509,116,132561,124683
1324,510,117,132561,124690
1327,510,116,132560,124690
1329,511,116,132560,124695
1331,512,116,132593,124697
1334,512,116,132581,124697
1336,512,116,132588,124700
1339,512,116,132588,124704
1341,512,116,132614,124713
1344,512,116,132622,124710
1346,512,116,132625,124710
1349,512,116,132625,124709
1351,512,115,132635,124712
1353,512,115,132647,124721
1356,512,115,132652,124721
1358,512,115,132651,124718
1361,511,115,132651,124722
1363,511,115,132614,124725
1367,512,115,132657,124725
1369,512,115,132662,124724
1371,512,114,132658,124719
1374,512,115,132658,124724
1376,512,114,132635,124724
1379,512,114,132634,124725
1381,511,114,132642,124726
1384,512,114,132642,124723
1386,512,114,132636,124725
1389,512,114,132654,124725
1391,512,114,132665,124722
1393,511,114,132653,124719
1396,511,114,132653,124712
1398,511,114,132649,124712
1401,510,114,132649,124717
1638,479,112,133063,124892
1641,481,112,133073,124898
1633,473,112,133063,124892
1636,476,112,133064,124891
1638,479,112,133063,124892
1641,481,112,133073,124898
1643,482,112,133078,124899
1633,473,112,133063,124892
1636,476,112,133064,124891
1638,479,112,133063,124892
1641,481,112,133073,124898
1643,482,112,133078,124899
1646,482,112,133087,124900
1648,483,112,133088,124910
1650,483,112,133101,124901
1653,484,112,133107,124915
1655,485,112,133115,124915
1658,485,112,133123,124908
1660,485,112,133116,124909
1664,486,112,133131,124909
1666,487,112,133141,124918
1669,487,112,133141,124918
1671,488,112,133147,124928
1673,488,112,133151,124922
1676,489,112,133163,124941
1678,490,112,133158,124936
1681,490,112,133166,124930
1683,490,112,133187,124931
1686,491,112,133187,124937
1688,491,112,133182,124941
1690,492,112,133186,124941
1693,492,112,133198,124944
1695,493,112,133194,124939
1698,494,112,133200,124939
1700,494,112,133200,124951
1703,495,112,133215,124948
1705,496,112,133234,124963
1709,496,112,133242,124963
1711,496,112,133255,124965
1713,496,112,133255,124981
1716,496,112,133258,124966
1718,497,112,133270,124966
1721,498,112,133276,124972
1723,498,112,133276,124975
1726,498,112,133285,124986
1728,498,112,133295,124986
1730,498,112,133305,124985
1733,499,112,133306,125001
1735,499,112,133306,125003
1738,500,112,133307,124991
1740,500,112,133305,124991
1743,501,112,133313,124994
1745,501,112,133292,124977
1748,501,112,133274,124977
1751,501,112,133274,124967
1753,502,112,133260,124958
1756,502,112,133213,124948
1758,503,112,133190,124948
1761,503,112,133154,124915
1763,503,112,133154,124907
1766,503,112,133135,124891
1768,503,112,133061,124875
1770,504,112,133061,124859
1773,504,112,132982,124859
1775,503,112,132947,124839
1778,503,112,132910,124806
1780,504,112,132910,124800
1783,504,112,132879,124790
1785,504,112,132809,124790
1788,504,112,132785,124777
1790,504,112,132785,124748
1793,504,112,132741,124733
1796,504,112,132686,124733
1798,505,112,132648,124730
1801,505,112,132628,124700
1803,505,112,132628,124693
1806,505,112,132604,124682
1808,505,112,132554,124682
1810,506,112,132539,124688
1813,506,112,132539,124661
1815,506,112,132511,124660
1818,506,112,132481,124660
1820,506,112,132481,124644
1823,506,111,132464,124644
1825,506,111,132462,124647
1828,506,111,132448,124645
1830,506,111,132448,124635
1832,505,111,132418,124633
1836,505,111,132424,124633
1838,505,111,132441,124630
1841,505,111,132441,124630
1843,505,111,132423,124635
1846,503,111,132426,124638
1848,502,111,132431,124638
1850,501,111,132431,124637
1853,501,111,132443,124632
1855,501,111,132433,124634
1858,501,111,132442,124635
1860,505,111,132439,124640
1863,506,111,132446,124640
1865,507,111,132451,124637
1868,508,111,132451,124645
1870,508,111,132447,124645
1872,509,111,132447,124648
1875,509,111,132445,124640
1878,509,111,132459,124645
1881,509,111,132457,124644
1883,509,111,132470,124644
1886,508,111,132475,124649
1888,507,111,132469,124649
1890,507,110,132469,124642
1893,505,111,132475,124642
1895,504,111,132475,124642
1898,504,110,132472,124637
1900,505,110,132493,124648
1903,505,111,132473,124640
1905,504,110,132499,124640
1908,503,111,132479,124640
1910,503,110,132497,124636
1912,505,110,132497,124637
1915,507,110,132476,124637
1917,506,110,132488,124636
1921,505,110,132466,124635
1923,506,110,132476,124636
1926,507,110,132481,124643
1928,508,110,132459,124631
1930,509,110,132472,124629
1933,510,110,132457,124627
1935,512,110,132468,124631
1938,512,110,132445,124630
1940,512,110,132447,124618
1943,512,110,132452,124623
1945,512,110,132447,124620
1948,512,110,132455,124622
1950,512,110,132435,124619
1952,512,110,132446,124618
1955,511,110,132435,124628
1957,511,110,132444,124623
1960,511,110,132444,124621
1963,511,110,132456,124615
1966,511,109,132442,124625
1968,511,109,132441,124621
1970,511,109,132443,124628
1973,511,110,132440,124626
1975,511,109,132445,124621
1978,511,109,132440,124626
1980,511,109,132455,124629
1983,511,110,132440,124631
1985,511,110,132452,124630
1988,511,110,132461,124633
1990,510,110,132470,124631
1992,510,110,132466,124637
1995,510,110,132474,124636
1997,510,110,132476,124640
2000,511,110,132485,124637
2002,511,110,132494,124646
2006,510,110,132486,124649
2008,511,110,132500,124647
2010,511,110,132500,124653
2013,511,110,132521,124660
2015,511,110,132502,124652
2018,510,110,132523,124650
2020,510,110,132515,124650
2023,510,110,132503,124654
2025,510,110,132518,124657
2028,510,110,132509,124655
2030,510,110,132522,124656
2032,510,110,132531,124653
2035,510,110,132521,124662
2037,510,109,132518,124657
2040,509,109,132517,124653
2042,509,109,132515,124648
2045,509,109,132510,124646
2048,509,109,132511,124650
2050,509,109,132513,124645
2053,509,109,132510,124645
2055,510,109,132507,124654
2058,510,109,132503,124645
2060,509,109,132488,124645
2063,509,109,132501,124649
2065,509,109,132493,124643
2068,510,109,132488,124644
2070,510,109,132494,124647
2072,510,109,132478,124621
2075,510,109,132481,124644
2077,510,109,132472,124638
2080,510,109,132480,124609
2082,510,109,132471,124616
2085,509,109,132469,124601
2087,510,109,132465,124630
2089,510,109,132469,124606
2093,510,109,132461,124625
2095,510,109,132467,124634
2098,510,110,132466,124630
2100,510,110,132463,124630
2103,510,110,132463,124628
2105,509,110,132458,124633
2108,509,110,132462,124628
2110,509,110,132472,124610
2112,509,110,132466,124613
2115,509,110,132465,124628
2117,509,110,132477,124618
2120,509,110,132473,124623
2122,509,110,132464,124627
2125,509,110,132472,124627
2127,509,110,132477,124621
2129,510,110,132485,124628
2132,511,110,132486,124634
2135,513,110,132486,124633
2138,516,110,132492,124628
2140,518,110,132507,124631
2143,519,110,132501,124637
2145,520,110,132511,124643
2148,521,110,132511,124643
2150,522,110,132521,124649
2152,521,110,132530,124651
2155,521,110,132529,124660
2157,519,110,132535,124663
2160,519,110,132541,124663
2162,517,110,132557,124673
2165,517,110,132571,124667
2167,516,110,132571,124664
2169,517,110,132578,124664
2172,515,110,132588,124682
2174,514,110,132588,124690
2178,512,110,132599,124679
2180,510,110,132596,124679
2183,509,110,132621,124672
2185,507,110,132611,124688
2188,507,110,132611,124693
2190,507,110,132640,124690
2192,507,110,132643,124690
2195,507,110,132658,124703
2197,507,110,132667,124702
2200,507,110,132673,124702
2202,507,110,132673,124707
2205,507,110,132678,124708
2207,507,110,132694,124715
2209,507,110,132694,124724
2212,506,111,132712,124716
2214,506,111,132719,124727
2217,506,111,132734,124726
2220,507,111,132733,124726
2223,508,111,132743,124733
2225,508,111,132743,124738
2228,507,111,132757,124744
2230,507,111,132768,124743
2232,507,111,132773,124743
2235,506,111,132782,124743
2237,505,111,132782,124750
2240,503,111,132794,124755
2242,500,111,132808,124755
2245,493,111,132831,124763
2247,474,111,132831,124770
2249,460,111,132830,124774
2252,447,111,132833,124774
2254,433,111,132852,124783
2257,416,111,132864,124777
2259,394,111,132864,124780
2263,390,111,132864,124784
2265,393,111,132878,124784
2268,402,111,132894,124793
2270,447,111,132894,124797
2272,490,111,132902,124807
2275,530,111,132891,124807
2277,573,111,132900,124807
2280,649,111,132935,124809
2282,676,111,132935,124807
2285,691,111,132935,124814
2287,694,111,132945,124814
2289,690,111,132948,124824
2292,673,111,132948,124827
2294,663,111,132957,124825
2297,656,111,132968,124825
2299,644,111,132964,124823
2302,616,111,132964,124827
2305,595,111,132972,124825
2308,574,111,132983,124825
2310,542,111,132983,124833
2312,525,111,132992,124840
2315,515,111,132995,124840
2317,506,111,133006,124828
2320,499,111,133006,124837
2322,485,111,132981,124840
2325,480,111,133006,124840
2327,478,111,133028,124843
2329,477,111,133023,124844
2332,478,111,133023,124852
2334,481,111,133035,124851
2337,483,111,133031,124851
2339,484,111,133043,124860
2342,485,111,133043,124855
2344,485,111,133042,124868
2348,485,111,133065,124868
2350,486,111,133065,124869
2352,487,111,133068,124869
2355,488,111,133095,124876
2357,488,111,133082,124869
2360,489,111,133082,124877
2362,489,111,133102,124877
2365,489,111,133098,124891
2367,489,111,133108,124885
2369,489,111,133108,124880
2372,489,111,133117,124894
2374,490,111,133128,124894
2377,490,111,133128,124898
2379,490,111,133133,124896
2382,491,111,133133,124888
2384,492,111,133146,124903
2387,493,111,133165,124903
2390,493,111,133152,124915
2392,494,111,133171,124917
2395,494,111,133172,124917
2397,495,111,133187,124918
2400,495,111,133186,124920
2402,496,111,133209,124931
2405,496,111,133203,124928
2407,497,111,133220,124926
2409,497,111,133221,124944
2412,498,111,133223,124944
2414,499,111,133244,124940
2417,499,111,133238,124938
2419,499,111,133246,124939
2422,499,111,133254,124949
2424,500,110,133276,124947
2427,500,110,133269,124948
2429,501,111,133268,124953
2432,501,110,133280,124955
2435,501,111,133288,124969
2437,501,111,133298,124963
2440,501,111,133275,124959
2442,502,110,133279,124958
2445,502,110,133296,124962
2447,503,110,133271,124959
2449,503,110,133277,124961
2452,503,111,133263,124950
2454,503,110,133244,124936
2457,503,111,133213,124918
2459,503,110,133192,124912
2462,503,110,133150,124895
2464,503,111,133127,124878
2467,504,111,133082,124873
2469,504,111,133059,124854
2471,504,111,133017,124842
2475,505,111,132977,124823
2477,505,111,132955,124808
2480,505,111,132915,124807
2482,505,111,132869,124783
2485,506,111,132840,124769
2487,506,111,132803,124759
2489,506,111,132771,124755
2492,506,111,132747,124733
2494,506,111,132711,124728
2497,506,111,132673,124717
2499,506,111,132658,124693
2502,507,111,132625,124692
2504,507,111,132601,124689
2507,508,111,132591,124686
2509,508,111,132560,124672
2511,509,111,132549,124665
2514,508,111,132520,124657
2516,508,111,132519,124648
2520,508,111,132499,124649
2522,508,111,132487,124648
2525,508,111,132475,124643
2527,509,111,132461,124636
2529,510,111,132471,124643
2532,510,111,132451,124635
2534,510,111,132454,124631
2537,510,111,132443,124635
2539,510,111,132450,124627
2542,511,111,132440,124627
2544,511,111,132441,124634
2547,512,111,132444,124631
2549,512,110,132440,124632
2551,513,111,132450,124639
2554,513,111,132451,124640
2556,512,111,132451,124634
2560,511,111,132458,124645
2562,512,111,132449,124639
2565,512,111,132449,124639
2567,512,111,132471,124645
2569,513,111,132472,124646
2572,513,111,132486,124648
2574,513,111,132489,124649
2577,513,111,132489,124655
2579,513,111,132496,124654
2582,514,111,132497,124654
2584,514,111,132506,124656
2587,514,111,132502,124652
2589,514,111,132521,124651
2591,513,111,132512,124661
2594,513,111,132517,124656
2596,512,111,132522,124654
2599,512,111,132527,124657
2601,512,111,132521,124662
2605,511,111,132523,124657
2607,510,111,132526,124664
2609,510,111,132525,124654
2612,510,111,132521,124651
2614,509,111,132521,124653
2617,508,111,132519,124652
2619,508,111,132517,124653
2622,508,110,132523,124653
2624,507,110,132517,124658
2627,507,110,132520,124650
2629,506,111,132521,124655
2631,506,110,132523,124655
2634,506,110,132523,124649
2636,507,110,132512,124646
2639,507,110,132516,124645
2641,507,110,132509,124645
2644,507,110,132517,124644
2647,507,110,132510,124646
2649,506,110,132510,124658
2652,507,110,132500,124642
2654,507,110,132504,124642
2657,507,110,132513,124643
2659,507,110,132513,124645
2662,507,110,132514,124647
2664,507,110,132509,124647
2667,507,110,132517,124646
2669,506,110,132517,124649
2671,506,110,132517,124650
2674,506,110,132521,124654
2676,506,111,132512,124654
2679,506,111,132532,124655
2681,507,110,132532,124657
2684,507,110,132525,124663
2686,507,110,132539,124662
2689,507,110,132544,124662
2692,507,111,132552,124664
2694,507,110,132552,124665
2697,508,110,132561,124672
2699,509,110,132566,124672
2702,509,110,132576,124680
2704,509,110,132576,124681
2707,508,110,132588,124690
2709,508,110,132594,124691
2711,508,110,132593,124691
2714,508,110,132593,124696
2716,508,110,132613,124695
2719,508,110,132605,124702
2721,509,110,132609,124702
2724,508,110,132622,124700
2726,509,110,132622,124702
2728,509,110,132638,124698
2732,510,110,132635,124698
2734,510,110,132643,124697
2737,510,110,132625,124713
2739,511,109,132625,124703
2742,511,109,132651,124703
2744,511,109,132650,124716
2747,510,109,132650,124701
2749,510,109,132642,124701
2751,510,109,132643,124704
2754,509,109,132643,124706
2756,509,109,132645,124706
2759,509,109,132637,124706
2761,509,109,132646,124709
2764,509,109,132643,124704
2766,510,109,132643,124700
2768,510,109,132641,124699
2771,510,109,132608,124701
2774,510,109,132608,124697
2777,510,109,132637,124697
2779,509,109,132631,124696
2782,509,109,132631,124690
2784,509,109,132625,124687
2787,510,109,132628,124687
2789,510,109,132628,124692
2791,509,109,132635,124692
2794,509,109,132623,124690
2796,509,109,132629,124691
2799,509,109,132629,124703
2801,509,109,132627,124704
2804,510,109,132635,124704
2806,511,109,132627,124692
2808,513,109,132641,124696
2811,515,109,132641,124695
2813,519,109,132647,124695
2817,520,109,132617,124700
2819,520,109,132637,124706
2822,521,109,132637,124704
2824,521,109,132632,124705
2827,521,109,132641,124705
2829,521,109,132641,124707
2831,521,109,132643,124705
2834,521,109,132650,124709
2836,520,109,132650,124708
2839,519,109,132649,124713
2841,518,109,132671,124713
2844,517,109,132662,124710
2846,515,109,132669,124709
2848,514,109,132669,124713
2851,512,109,132676,124714
2853,510,109,132684,124714
2856,509,109,132691,124719
2859,508,109,132700,124714
2862,509,109,132700,124714
2864,510,109,132708,124727
2867,510,109,132713,124731
2869,510,109,132700,124729
2871,510,109,132716,124735
2874,510,109,132727,124733
2876,507,109,132725,124729
2879,504,109,132746,124733
2881,501,109,132760,124742
2884,500,109,132758,124746
2886,500,109,132754,124744
2888,500,109,132771,124749
2891,500,109,132772,124755
2893,501,109,132791,124756
2896,501,109,132794,124759
2898,503,109,132802,124761
2902,503,109,132796,124768
2904,504,109,132810,124760
2907,504,109,132818,124774
2909,502,109,132808,124769
2911,502,110,132840,124771
2914,502,109,132834,124778
2916,500,109,132847,124779
2919,494,110,132855,124778
2921,477,110,132864,124785
2924,463,110,132861,124791
2926,450,110,132879,124788
2928,435,110,132885,124795
2931,405,110,132884,124793
2933,392,110,132910,124799
2936,385,109,132910,124804
2938,385,109,132910,124810
2941,407,109,132925,124801
2944,435,109,132916,124808
2947,470,110,132940,124821
2949,511,110,132943,124813
2951,564,110,132954,124823
2954,624,110,132950,124820
2956,663,110,132962,124820
2959,701,110,132965,124822
2961,705,110,132979,124829
2964,699,110,132975,124843
2966,686,110,132983,124836
2968,671,111,133002,124841
2971,657,110,132994,124840
2973,644,111,133010,124843
2976,615,110,133006,124847
2978,595,111,133019,124856
2981,575,111,133029,124854
2983,554,111,133029,124851
2987,532,111,133037,124860
2989,505,111,133039,124861
2991,495,111,133047,124870
2994,486,111,133046,124870
2996,480,110,133055,124864
2999,474,110,133058,124876
3001,471,110,133073,124877
3004,472,110,133082,124878
3006,473,110,133081,124882
3008,476,110,133102,124886
3011,477,110,133097,124888
3013,480,110,133106,124894
3016,480,110,133101,124892
3018,480,110,133120,124897
3021,481,110,133117,124894
3023,481,110,133126,124898
3026,481,110,133137,124902
3028,483,110,133141,124916
3031,484,110,133155,124905
3034,484,110,133152,124908
3036,485,110,133159,124914
3039,486,110,133159,124914
3041,486,110,133180,124924
3044,486,110,133173,124900
3046,487,110,133180,124928
3048,486,110,133187,124927
3051,485,110,133192,124926
3053,485,110,133213,124918
3056,485,110,133209,124935
3058,487,110,133208,124930
3061,489,110,133219,124930
3063,491,110,133236,124940
3066,490,110,133236,124936
3068,490,110,133238,124953
3070,491,110,133246,124947
3074,492,110,133254,124963
3076,492,110,133260,124956
3079,492,110,133260,124964
3081,492,110,133273,124960
3084,492,110,133283,124960
3086,495,110,133295,124978
3088,496,110,133295,124975
3091,496,110,133314,124972
3093,497,110,133315,124972
3096,497,110,133338,124993
3098,497,110,133335,124992
3101,497,110,133337,124999
3103,496,109,133339,125001
3106,496,109,133353,125001
3108,498,109,133361,125001
3110,499,110,133354,125005
3113,499,110,133348,125005
3116,500,110,133350,124999
3119,500,110,133350,124999
3121,500,109,133350,124999
3124,500,109,133341,124991
3126,501,110,133311,124991
3128,501,110,133295,124984
3131,502,110,133282,124954
3133,502,110,133282,124949
3136,501,110,133243,124940
3138,502,110,133180,124940
3141,502,110,133152,124920
3143,503,110,133102,124880
3146,504,110,133102,124874
3148,504,110,133031,124861
3150,504,110,132987,124861
3153,504,111,132958,124831
3155,504,110,132958,124821
3159,503,110,132873,124796
3161,503,110,132833,124796
3164,503,110,132796,124776
3166,505,110,132796,124758
3168,506,110,132760,124747
3171,506,110,132703,124747
3173,506,110,132669,124740
3176,506,110,132639,124709
3178,505,110,132639,124700
3181,505,110,132611,124687
3183,504,110,132563,124687
3186,503,110,132550,124685
3188,503,110,132550,124664
3190,505,110,132513,124658
3193,506,110,132474,124658
3195,507,110,132469,124639
3198,507,110,132448,124638
3201,507,110,132448,124628
3204,508,110,132440,124630
3206,508,111,132420,124630
3208,507,111,132405,124632
3211,506,111,132405,124621
3213,506,110,132401,124612
3216,506,110,132398,124612
3218,507,110,132395,124621
3221,508,110,132395,124611
3223,509,110,132393,124610
3226,509,111,132390,124612
3228,509,111,132389,124612
3230,510,111,132393,124610
3233,512,111,132393,124607
3235,512,111,132394,124609
3238,512,111,132389,124609
3240,511,111,132393,124608
3244,510,111,132393,124614
3246,510,111,132367,124614
3248,510,111,132367,124605
3251,510,111,132376,124612
3253,510,111,132410,124613
3256,510,111,132401,124621
3258,510,111,132409,124619
3261,511,111,132411,124619
3263,512,111,132418,124614
3266,514,111,132418,124619
3268,514,111,132414,124626
3270,516,111,132416,124618
3273,516,111,132418,124618
3275,514,111,132417,124618
3278,511,111,132417,124625
3280,508,111,132434,124626
3283,507,111,132417,124626
3286,506,111,132440,124618
3288,505,111,132440,124617
3291,505,111,132425,124619
3293,505,111,132428,124619
3296,505,111,132430,124615
3298,506,111,132419,124612
3301,506,112,132419,124608
3303,506,111,132419,124618
3306,506,112,132412,124618
3308,506,112,132412,124619
3310,507,112,132413,124616
3313,507,111,132410,124611
3315,507,111,132410,124606
3318,507,112,132413,124616
3320,508,112,132435,124616
3323,508,111,132424,124608
3325,509,111,132421,124607
3328,510,111,132414,124602
3331,510,111,132425,124605
3333,511,112,132415,124608
3336,512,111,132421,124606
3338,512,112,132414,124610
3341,511,111,132428,124613
3343,511,111,132422,124614
3346,513,112,132422,124614
3348,517,112,132433,124614
3350,518,112,132422,124611
3353,518,112,132425,124611
3355,516,112,132433,124611
3358,513,112,132443,124619
3360,508,112,132449,124616
3363,506,112,132444,124618
3365,505,112,132459,124617
3367,505,112,132461,124626
3371,505,112,132467,124624
3373,505,112,132476,124635
3376,506,112,132478,124632
3378,506,112,132498,124634
3381,507,112,132485,124634
3383,507,112,132504,124634
3386,508,112,132507,124639
3388,509,112,132518,124640
3390,509,112,132511,124643
3393,509,112,132525,124645
3395,509,112,132527,124652
3398,510,113,132535,124650
3400,510,112,132544,124652
3403,510,112,132535,124647
3405,511,113,132543,124661
3407,511,113,132538,124653
3410,511,113,132550,124655
3412,511,113,132553,124663
3416,512,112,132559,124658
3418,513,112,132558,124657
3421,513,112,132557,124656
3423,514,113,132559,124653
3426,514,112,132558,124653
3428,514,112,132565,124653
3430,513,112,132550,124657
3433,513,113,132554,124653
3435,512,113,132551,124658
3438,512,113,132562,124655
3440,512,113,132549,124654
3443,513,113,132560,124655
3445,513,113,132551,124657
3447,513,113,132558,124655
3450,513,112,132548,124657
3452,513,113,132554,124648
3456,512,112,132550,124654
3458,512,112,132553,124645
3461,511,112,132556,124660
3463,511,112,132554,124660
3466,510,112,132565,124662
3468,510,112,132565,124662
3470,510,112,132573,124672
3473,511,112,132572,124675
3475,511,112,132573,124677
3478,512,112,132572,124680
3480,513,112,132582,124676
3483,514,112,132588,124680
3485,516,112,132588,124680
3487,519,112,132591,124679
3490,521,112,132590,124681
3492,522,112,132595,124689
3495,524,112,132600,124690
3497,524,112,132608,124687
3501,524,112,132613,124690
3503,524,112,132611,124696
3506,523,112,132618,124700
3508,522,112,132631,124703
3510,522,112,132633,124690
3513,522,112,132642,124698
3515,520,112,132652,124706
3518,519,112,132652,124710
3520,517,112,132659,124711
3523,515,112,132661,124711
3525,512,112,132681,124713
3527,510,112,132678,124722
3530,508,112,132690,124725
3532,508,112,132695,124716
3535,507,112,132693,124722
3537,507,112,132700,124726
3540,506,113,132700,124731
3543,506,113,132722,124740
3546,507,113,132736,124743
3548,506,113,132740,124742
3550,507,113,132744,124742
3553,507,113,132761,124751
3555,507,113,132758,124752
3558,506,113,132772,124757
3560,506,113,132777,124755
3563,507,112,132782,124757
3565,507,113,132802,124766
3567,506,112,132802,124768
3570,506,112,132809,124771
3572,506,112,132818,124772
3575,507,113,132829,124785
3577,507,112,132844,124778
3580,506,112,132844,124777
3582,506,112,132848,124786
3586,506,112,132852,124786
3588,504,112,132863,124793
3590,502,112,132863,124797
3593,494,112,132869,124805
3595,481,112,132887,124804
3598,470,112,132898,124803
3600,458,112,132900,124803
3603,444,112,132921,124821
3605,411,112,132915,124817
3607,399,112,132915,124826
3610,389,112,132940,124834
3612,387,112,132948,124834
3615,392,112,132967,124835
3617,423,112,132967,124841
3620,461,112,132958,124846
3622,501,112,132978,124846
3625,544,112,132982,124845
3628,634,112,133002,124850
3630,670,112,133002,124854
3633,694,112,133007,124864
3635,702,113,133014,124864
3638,698,113,133023,124870
3640,685,113,133023,124871
3643,669,113,133030,124872
3645,661,113,133038,124872
3647,650,113,133052,124875
3650,623,113,133052,124884
3652,603,113,133063,124883
3655,585,113,133071,124883
3657,561,113,133080,124891
3660,541,113,133087,124888
3662,510,113,133087,124889
3665,497,113,133089,124895
3667,489,113,133096,124895
3670,482,113,133107,124903
3673,472,113,133107,124902
3675,470,113,133112,124907
3678,469,113,133122,124907
3680,471,113,133122,124900
3683,474,113,133131,124910
3685,477,113,133149,124916
3687,479,113,133149,124913
3690,480,113,133154,124913
3692,481,113,133156,124919
3695,482,114,133156,124920
3697,482,113,133160,124928
3700,483,113,133143,124928
3702,484,113,133162,124935
3705,484,113,133162,124933
3707,484,113,133194,124939
3709,485,114,133209,124939
3713,486,114,133220,124940
3715,486,114,133203,124948
3718,487,113,133203,124951
3720,487,114,133202,124958
3723,487,113,133242,124958
3725,488,114,133243,124957
3727,488,114,133242,124960
3730,489,114,133242,124963
3732,490,113,133256,124972
3735,490,114,133273,124972
3737,491,113,133287,124975
3740,491,113,133287,124984
3742,491,113,133288,124989
3745,491,114,133319,124989
3747,491,114,133319,124996
3749,492,113,133307,124996
3752,492,114,133343,124992
3755,492,114,133340,124995
3758,493,114,133340,125009
3760,494,114,133349,125009
3763,494,114,133356,125007
3765,494,114,133374,125015
3767,495,114,133374,125014
3770,495,114,133379,125025
3772,496,114,133385,125025
3775,496,114,133390,125029
3777,497,114,133402,125026
3780,498,114,133402,125030
3782,498,114,133398,125034
3785,498,114,133407,125034
3787,499,114,133407,125046
3789,499,114,133421,125035
3792,500,114,133406,125050
3794,500,114,133406,125031
3798,500,114,133390,125023
3800,501,114,133398,125019
3803,501,114,133369,125006
3805,501,113,133344,125001
3807,501,114,133312,124983
3810,502,114,133283,124967
3812,502,114,133249,124947
3815,501,114,133192,124937
3817,501,114,133174,124919
3820,502,114,133146,124907
3822,503,114,133083,124884
3825,503,114,133046,124871
3827,503,114,132996,124862
3829,503,114,132971,124845
3832,503,113,132929,124823
3834,503,114,132889,124810
3837,503,113,132852,124800
3840,503,113,132811,124786
3843,503,113,132772,124776
3845,503,113,132748,124757
3847,503,113,132711,124746
3850,504,114,132686,124740
3852,504,114,132669,124728
3855,504,114,132643,124725
3857,504,114,132611,124710
3860,503,114,132603,124707
3862,503,114,132561,124694
3865,503,114,132553,124690
3867,504,114,132537,124682
3869,505,114,132526,124680
3872,507,114,132514,124671
3874,508,114,132487,124667
3877,509,114,132486,124662
3879,509,115,132482,124665
3883,509,114,132475,124662
3885,509,114,132481,124663
3887,508,114,132464,124665
3890,507,114,132467,124655
3892,506,114,132464,124658
3895,505,114,132446,124661
3897,505,114,132468,124653
3900,505,114,132465,124660
3902,505,114,132459,124653
3905,506,114,132472,124668
3907,506,114,132465,124660
3909,507,113,132475,124667
3912,508,113,132468,124665
3914,509,113,132477,124670
3917,510,113,132483,124668
3919,509,113,132480,124665
3922,509,113,132489,124664
3924,509,113,132494,124666
3927,509,113,132498,124680
3930,509,113,132516,124676
3932,509,113,132522,124689
3935,508,113,132523,124694
3937,508,113,132533,124690
3940,508,113,132532,124695
3942,508,113,132546,124699
3945,508,113,132536,124698
3947,508,113,132559,124702
3949,508,113,132549,124702
3952,508,113,132552,124702
3954,509,113,132553,124705
3957,509,113,132551,124700
3959,509,113,132563,124697
3962,508,113,132564,124698
3964,507,113,132561,124703
3966,507,113,132568,124705
3970,507,113,132569,124703
3972,507,113,132573,124710
3975,507,113,132576,124710
3977,507,113,132576,124698
3980,507,113,132573,124700
3982,507,113,132573,124704
3985,507,113,132571,124697
3987,507,113,132568,124700
3989,507,113,132568,124698
3992,506,113,132575,124706
3994,506,113,132572,124701
3997,507,113,132576,124701
3999,507,113,132582,124700
4002,507,114,132575,124695
4004,508,113,132581,124704
4006,509,113,132576,124704
4009,510,113,132583,124702
4012,510,113,132588,124693
4015,510,113,132584,124703
4017,510,113,132583,124702
4020,510,113,132590,124710
4022,510,114,132588,124706
4025,510,114,132588,124708
4027,511,113,132602,124707
4029,511,113,132610,124715
4032,511,114,132603,124716
4034,510,114,132614,124716
4037,510,114,132622,124716
4039,508,113,132625,124735
4042,507,114,132625,124729
4044,507,114,132640,124728
4046,507,114,132652,124728
4049,507,114,132669,124743
4051,507,114,132672,124739
4055,507,114,132682,124739
4057,508,114,132682,124755
4060,509,114,132691,124749
4062,509,114,132695,124749
4065,510,114,132708,124756
4067,511,114,132715,124766
4069,511,114,132715,124767
4072,511,114,132734,124773
4074,512,114,132741,124773
4077,512,114,132755,124782
4079,511,114,132755,124787
4082,512,114,132762,124782
4084,512,114,132772,124782
4086,512,114,132773,124788
4089,514,114,132773,124786
4091,514,114,132773,124793
4094,514,114,132783,124789
4097,514,114,132780,124789
4100,513,114,132788,124796
4102,512,114,132788,124783
4105,511,114,132783,124790
4107,511,114,132788,124790
4109,511,114,132788,124794
4112,511,114,132797,124796
4114,511,114,132798,124797
4117,511,114,132798,124786
4119,511,114,132788,124786
4122,510,114,132784,124805
4124,509,114,132784,124791
4126,509,114,132791,124794
4129,509,114,132792,124794
4131,510,114,132794,124787
4134,511,114,132796,124791
4136,511,114,132796,124790
4140,512,114,132803,124790
4142,513,114,132796,124790
4145,513,114,132798,124793
4147,516,114,132798,124802
4149,520,114,132808,124803
4152,522,114,132812,124803
4154,524,114,132821,124801
4157,526,114,132821,124797
4159,526,114,132815,124806
4162,526,114,132811,124806
4164,525,114,132822,124791
4166,524,114,132827,124804
4169,523,114,132827,124808
4171,523,114,132829,124808
4174,523,114,132832,124808
4176,522,114,132835,124812
4179,520,114,132835,124814
4182,518,114,132839,124814
4185,514,114,132839,124821
4187,512,114,132848,124820
4189,510,114,132848,124820
4192,509,115,132864,124821
4194,508,114,132848,124820
4197,508,115,132848,124831
4199,508,115,132859,124834
4202,508,114,132878,124834
4204,508,114,132883,124835
4206,508,114,132879,124836
4209,508,114,132879,124832
4211,507,115,132891,124836
4214,507,115,132890,124836
4216,507,114,132900,124846
4219,507,114,132900,124846
4221,507,114,132903,124847
4225,507,115,132919,124847
4227,507,115,132919,124855
4229,508,115,132919,124855
4232,508,115,132930,124856
4234,508,115,132930,124857
4237,508,115,132935,124860
4239,507,115,132946,124860
4242,507,115,132945,124862
4244,506,115,132953,124858
4246,505,115,132953,124862
4249,504,115,132966,124862
4251,500,115,132969,124862
4254,494,115,132976,124869
4256,485,115,132983,124871
4259,476,115,132983,124871
4261,462,115,132992,124877
4264,437,115,133012,124877
4267,419,115,133001,124883
4269,407,115,133006,124877
4272,395,115,133020,124895
4274,390,115,133032,124895
4277,400,115,133029,124895
4279,416,115,133036,124895
4282,441,115,133047,124897
4284,519,116,133047,124899
4286,571,116,133060,124910
4289,612,115,133062,124907
4291,647,116,133070,124906
4294,677,115,133083,124912
4296,696,116,133076,124905
4299,697,116,133094,124917
4301,674,116,133095,124916
4304,657,116,133109,124913
4306,643,116,133106,124920
4308,634,116,133108,124923
4312,615,116,133125,124931
4314,600,116,133125,124934
4317,584,116,133127,124940
4319,567,116,133134,124935
4322,544,116,133144,124941
4324,512,116,133156,124942
4326,500,116,133147,124949
4329,491,116,133172,124950
4331,483,116,133179,124951
4334,476,116,133168,124946
4336,469,116,133189,124950
4339,467,116,133181,124953
4341,468,116,133195,124962
4344,470,116,133204,124962
4346,476,116,133210,124957
4348,478,116,133211,124974
4352,479,116,133227,124975
4354,480,116,133232,124978
4357,483,117,133237,124975
4359,483,117,133248,124977
4362,484,117,133252,124983
4364,484,117,133250,124988
4366,485,117,133264,124985
4369,486,117,133267,124988
4371,487,117,133266,124995
4374,487,117,133286,125001
4376,487,117,133288,125007
4379,488,117,133310,125005
4381,488,117,133304,125010
4384,489,117,133312,125011
4386,489,117,133310,125019
4388,490,117,133323,125021
4391,490,117,133335,125021
4393,491,117,133331,125021
4397,491,117,133351,125028
4399,492,117,133353,125032
4402,492,116,133361,125032
4404,493,117,133372,125022
4406,493,117,133383,125045
4409,494,116,133390,125050
4411,494,116,133394,125049
4414,495,117,133401,125057
4416,495,116,133405,125061
4419,496,117,133413,125058
4421,496,117,133424,125061
4424,496,116,133431,125072
4426,497,116,133442,125068
4428,497,116,133454,125070
4431,498,117,133458,125074
4433,498,117,133467,125081
4436,499,117,133475,125084
4439,499,117,133479,125090
4442,498,117,133479,125093
4444,498,117,133494,125092
4446,499,117,133496,125097
4449,500,117,133500,125095
4451,500,117,133509,125099
4454,501,117,133509,125107
4456,501,117,133496,125091
4459,501,117,133499,125091
4461,502,117,133483,125074
4464,502,117,133463,125069
4466,502,117,133448,125060
4468,502,117,133411,125053
4471,502,117,133376,125028
4473,503,117,133359,125012
4476,502,117,133359,124999
4478,502,118,133269,124985
4482,502,118,133229,124985
4484,503,118,133184,124956
4486,504,118,133184,124931
4489,504,118,133107,124909
4491,505,118,133054,124909
4494,505,118,133018,124878
4496,505,118,132978,124867
4499,505,118,132937,124851
4501,505,118,132904,124845
4504,505,118,132863,124845
4506,506,118,132839,124812
4508,506,118,132796,124798
4511,506,118,132772,124799
4513,505,118,132772,124777
4516,506,118,132744,124769
4518,506,118,132692,124760
4521,507,118,132667,124760
4524,506,118,132646,124752
4526,507,118,132633,124752
4529,506,118,132619,124737
4531,506,118,132619,124727
4534,506,118,132596,124725
4536,506,118,132572,124725
4539,506,118,132571,124723
4541,507,118,132564,124714
4544,508,118,132556,124714
4546,508,118,132552,124716
4548,508,118,132552,124716
4551,508,118,132539,124711
4553,508,119,132539,124715
4556,507,119,132546,124711
4558,508,119,132540,124711
4561,508,119,132547,124713
4563,508,119,132548,124708
4566,508,119,132548,124708
4569,508,119,132548,124715
4571,507,119,132550,124718
4574,508,119,132563,124718
4576,508,119,132563,124716
4579,509,119,132568,124718
4581,509,119,132568,124717
4584,509,119,132568,124717
4586,509,119,132575,124717
4588,509,120,132585,124721
4591,509,120,132588,124727
4593,509,120,132588,124728
4596,510,120,132590,124730
4598,510,120,132592,124730
4601,510,120,132605,124730
4603,510,120,132605,124735
4605,510,120,132609,124734
4609,510,120,132618,124734
4611,510,120,132617,124735
4614,510,120,132617,124736
4616,510,120,132613,124731
4619,509,120,132618,124731
4621,509,120,132629,124728
4624,509,120,132625,124734
4626,509,120,132625,124727
4628,508,120,132629,124735
4631,509,120,132633,124735
4633,509,120,132633,124727
4636,509,120,132633,124730
4638,509,120,132633,124729
4641,509,120,132635,124733
4643,509,121,132627,124733
4645,509,120,132627,124731
4648,509,121,132633,124728
4651,509,121,132633,124730
4654,509,121,132637,124735
4656,509,121,132632,124733
4659,509,121,132641,124733
4661,509,121,132638,124734
4664,509,121,132638,124734
4666,509,121,132646,124730
4668,510,121,132644,124735
4671,510,121,132638,124735
4673,510,121,132638,124740
4676,510,121,132653,124739
4678,510,121,132668,124747
4681,511,122,132668,124747
4683,511,122,132668,124755
4685,510,122,132668,124747
4688,510,122,132675,124747
4690,509,122,132686,124759
4694,509,122,132690,124757
4696,509,122,132688,124757
4699,509,122,132691,124760
4701,509,122,132709,124763
4704,509,122,132709,124759
4706,510,122,132716,124765
4708,510,122,132752,124765
4711,510,122,132728,124770
4713,510,122,132744,124777
4716,510,122,132744,124777
4718,509,122,132752,124786
4721,509,123,132777,124786
4723,510,123,132761,124788
4725,510,123,132785,124787
4728,509,123,132786,124787
4730,510,123,132794,124799
4733,510,123,132802,124792
4736,510,123,132804,124797
4739,510,123,132809,124798
4741,510,123,132818,124805
4744,510,123,132828,124798
4746,510,123,132825,124800
4748,511,123,132839,124809
4751,511,123,132827,124811
4753,511,123,132843,124812
4756,511,123,132833,124815
4758,511,123,132835,124812
4761,510,123,132838,124807
4763,510,124,132838,124806
4765,509,124,132852,124810
4768,510,124,132843,124810
4770,510,124,132838,124812
4773,510,124,132857,124812
4775,510,124,132846,124809
4779,510,123,132853,124809
4781,510,124,132835,124812
4784,510,124,132847,124806
4786,509,124,132842,124800
4788,509,124,132843,124803
4791,509,124,132850,124804
4793,509,124,132832,124809
4796,509,124,132841,124808
4798,509,124,132851,124808
4801,509,124,132849,124809
4803,509,124,132860,124809
4805,509,124,132844,124815
4808,509,124,132859,124812
4810,509,124,132857,124813
4813,510,124,132850,124811
4815,511,124,132864,124814
4818,512,124,132854,124809
4820,514,124,132857,124815
4824,516,124,132864,124809
4826,519,124,132854,124816
4828,520,124,132869,124819
4831,522,124,132857,124817
4833,522,124,132880,124817
4836,522,124,132865,124821
4838,522,124,132882,124820
4841,522,124,132878,124829
4843,521,124,132880,124819
4845,521,124,132888,124828
4848,520,124,132893,124828
4850,518,124,132888,124827
4853,517,124,132909,124824
4855,515,124,132912,124828
4858,513,124,132910,124831
4860,511,124,132912,124841
4864,509,124,132922,124836
4866,506,124,132919,124845
4868,505,124,132932,124849
4871,505,124,132938,124843
4873,504,124,132958,124857
4876,504,124,132946,124860
4878,505,124,132951,124865
4881,505,125,132961,124850
4883,505,125,132973,124863
4885,504,125,132978,124867
4888,504,125,132983,124868
4890,504,125,133010,124872
4893,504,125,133010,124877
4895,504,126,133020,124875
4898,504,126,133018,124875
4900,504,126,133025,124880
4903,505,126,133038,124874
4905,505,126,133046,124890
4908,505,126,133046,124892
4911,506,126,133056,124897
4913,506,126,133068,124892
4916,506,126,133068,124904
4918,505,126,133076,124905
4921,505,126,133095,124905
4923,502,126,133117,124918
4925,496,126,133104,124911
4928,489,126,133111,124918
4930,478,126,133109,124918
4933,456,126,133132,124926
4935,440,126,133142,124925
4938,427,127,133142,124931
4940,408,126,133154,124937
4943,393,126,133168,124940
4945,388,126,133167,124936
4947,390,126,133181,124936
4951,418,126,133190,124942
4953,445,126,133204,124945
4956,483,126,133204,124949
4958,543,127,133211,124962
4961,579,127,133215,124962
4963,661,127,133225,124966
4965,687,127,133225,124959
4968,706,127,133230,124968
4970,711,127,133236,124968
4973,695,127,133252,124973
4975,677,127,133254,124973
4978,665,127,133257,124972
4980,655,127,133266,124972
4983,642,127,133276,124980
4985,612,127,133274,124990
4987,594,127,133274,124981
4990,569,127,133286,124992
4993,548,127,133290,124992
4996,529,127,133300,124998
4998,500,127,133306,124994
5001,488,127,133306,124995
5003,478,127,133303,125004
5005,473,127,133315,125004
5008,465,127,133331,125010
5010,464,127,133331,125010
5013,465,127,133340,125018
5015,467,127,133339,125018
5018,470,127,133349,125015
5020,475,127,133349,125021
5023,478,127,133350,125020
5025,480,127,133356,125020
5027,481,127,133356,125033
5030,482,127,133376,125027
5032,482,127,133378,125027
5036,482,127,133386,125034
5038,484,127,133386,125029
5041,485,127,133395,125044
5043,485,127,133409,125044
5045,485,127,133407,125048
5048,486,127,133407,125040
5050,486,127,133421,125052
5053,487,127,133433,125052
5055,488,127,133442,125055
5058,488,127,133455,125057
5060,488,127,133455,125056
5063,488,127,133456,125064
5065,489,127,133469,125064
5067,489,127,133477,125065
5070,490,127,133477,125069
5072,491,127,133477,125083
5075,492,127,133497,125083
5078,492,127,133497,125075
5081,492,127,133511,125083
5083,493,127,133518,125083
5085,493,127,133517,125092
5088,493,127,133517,125092
5090,494,126,133544,125095
5093,495,127,133556,125095
5095,496,127,133564,125105
5098,496,126,133564,125112
5100,496,126,133566,125110
5103,497,127,133572,125110
5105,497,127,133594,125110
5107,497,126,133559,125119
5110,498,126,133559,125116
5112,498,126,133563,125131
5115,499,127,133616,125131
5117,499,126,133616,125128
5121,499,126,133611,125128
5123,499,127,133621,125121
5125,499,127,133602,125125
5128,500,127,133602,125123
5130,500,127,133602,125110
5133,500,127,133562,125110
5135,501,127,133562,125088
5138,502,127,133510,125088
5140,502,127,133485,125083
5143,502,127,133485,125043
5145,502,127,133438,125019
5147,502,127,133397,125019
5150,502,127,133300,125005
5152,502,127,133275,125001
5155,503,127,133275,124957
5157,503,127,133232,124934
5160,504,127,133147,124934
5163,503,127,133099,124930
5165,504,127,133099,124894
5168,504,127,133058,124894
5170,504,127,133026,124863
5173,504,127,132977,124844
5175,504,127,132951,124844
5178,504,127,132911,124839
5180,504,127,132848,124828
5183,504,127,132848,124807
5185,504,127,132823,124791
5187,504,127,132818,124791
5190,504,127,132773,124784
5192,505,127,132755,124775
5195,505,127,132747,124775
5197,505,126,132718,124768
5200,505,127,132697,124760
5202,505,126,132676,124755
5204,505,126,132678,124748
5208,505,126,132662,124744
5210,505,126,132658,124740
5213,505,126,132642,124739
5215,506,126,132642,124740
5218,506,126,132638,124737
5220,507,126,132637,124738
5223,506,126,132640,124736
5225,506,126,132627,124734
5227,505,126,132630,124735
5230,505,126,132628,124729
5232,505,126,132634,124725
5235,506,126,132613,124736
5237,506,126,132626,124723
5240,506,126,132641,124732
5242,506,126,132632,124732
5244,506,126,132647,124737
5248,506,126,132645,124747
5250,507,126,132647,124745
5253,507,126,132657,124740
5255,507,126,132661,124742
5258,507,126,132656,124748
5260,507,126,132668,124741
5263,507,126,132674,124745
5265,508,126,132678,124741
5267,509,126,132671,124744
5270,509,126,132676,124753
5272,509,126,132680,124744
5275,509,126,132683,124751
5277,509,126,132700,124751
5280,510,126,132690,124750
5282,510,126,132703,124753
5284,510,125,132677,124753
5287,510,126,132693,124752
5289,510,125,132695,124741
5293,510,126,132689,124752
5295,509,126,132709,124746
5298,509,126,132704,124755
5300,509,126,132709,124751
5303,509,126,132713,124752
5305,509,125,132698,124745
5307,508,126,132699,124746
5310,509,126,132701,124740
5312,508,126,132696,124745
5315,509,125,132708,124743
5317,509,125,132702,124746
5320,510,126,132707,124751
5322,510,125,132698,124739
5324,511,125,132695,124745
5327,511,125,132694,124745
5329,511,125,132691,124736
5332,511,125,132696,124744
5335,511,125,132693,124741
5338,512,125,132698,124733
5340,511,125,132694,124737
5343,511,125,132704,124745
5345,510,125,132706,124740
5347,511,125,132702,124739
5350,511,125,132712,124742
5352,511,125,132720,124747
5355,512,125,132723,124753
5357,512,125,132733,124757
5360,512,125,132734,124755
5362,512,125,132741,124760
5364,512,125,132741,124759
5367,511,125,132738,124759
5369,512,124,132751,124756
5372,512,124,132752,124756
5374,512,125,132767,124763
5378,512,124,132770,124764
5380,512,124,132773,124773
5383,512,124,132788,124767
5385,512,125,132791,124773
5387,513,125,132803,124771
5390,512,125,132808,124784
5392,512,125,132808,124779
5395,512,124,132831,124779
5397,512,125,132830,124784
5400,512,125,132838,124784
5402,512,124,132851,124790
5404,512,124,132858,124790
5407,512,124,132865,124794
5409,512,124,132880,124795
5412,512,124,132880,124803
5414,512,124,132872,124804
5417,512,124,132878,124804
5420,512,124,132892,124825
5423,512,124,132892,124806
5425,511,124,132902,124808
5427,511,124,132903,124808
5430,511,124,132906,124807
5432,511,124,132910,124816
5435,510,124,132910,124823
5437,510,124,132915,124817
5440,510,124,132917,124817
5442,510,124,132923,124813
5444,510,124,132923,124813
5447,510,124,132911,124811
5449,511,124,132924,124811
5452,511,124,132935,124825
5454,511,124,132935,124822
5457,511,124,132928,124826
5459,511,124,132918,124826
5463,511,124,132929,124814
5465,510,124,132924,124824
5467,510,124,132924,124818
5470,509,124,132930,124817
5472,509,124,132924,124817
5475,509,124,132933,124823
5477,509,124,132933,124812
5480,509,124,132929,124822
5482,509,124,132935,124820
5484,510,124,132929,124820
5487,509,124,132929,124823
5489,509,124,132936,124827
5492,509,123,132944,124821
5494,510,124,132943,124821
5497,510,124,132949,124826
5499,513,124,132949,124831
5502,516,123,132944,124835
5505,518,124,132949,124835
5507,519,123,132953,124827
5510,521,123,132954,124828
5512,522,124,132954,124832
5515,521,123,132960,124832
5517,521,124,132960,124835
5520,521,124,132966,124837
5522,521,124,132985,124837
5524,520,124,132980,124838
5527,519,124,132980,124849
5529,518,124,132989,124845
5532,518,124,133000,124845
5534,517,124,133008,124854
5537,516,124,133014,124855
5539,512,124,133014,124856
5542,510,124,133017,124858
5544,508,124,133022,124858
5547,506,124,133043,124864
5550,505,124,133043,124870
5552,505,124,133037,124865
5555,505,124,133054,124865
5557,505,124,133054,124875
5560,505,124,133059,124875
5562,504,124,133067,124872
5564,504,124,133085,124882
5567,504,124,133085,124886
5569,504,124,133094,124891
5572,505,124,133106,124891
5574,505,124,133104,124892
5577,505,123,133104,124889
5579,506,124,133113,124895
5582,505,123,133124,124895
5584,505,124,133141,124897
5586,505,124,133127,124901
5590,505,124,133127,124907
5592,506,123,133134,124912
5595,506,124,133166,124912
5597,506,124,133166,124925
5600,505,124,133185,124925
5602,504,124,133184,124923
5604,502,124,133184,124929
5607,494,124,133189,124929
5609,487,123,133208,124929
5612,475,124,133226,124936
5614,464,123,133225,124943
5617,451,123,133225,124948
5619,435,123,133241,124948
5622,399,123,133246,124952
5624,399,123,133257,124956
5626,386,123,133254,124956
5629,392,123,133266,124961
5632,403,123,133266,124967
5635,458,123,133290,124965
5637,458,123,133283,124967
5640,547,123,133292,124967
5642,592,123,133292,124979
5644,641,123,133307,124982
5647,669,123,133330,124982
5649,708,123,133316,124987
5652,710,123,133321,124980
5654,704,123,133321,124993
5657,691,123,133342,124994
5659,676,123,133354,124994
5662,659,123,133358,125000
5664,643,123,133369,125006
5666,615,123,133397,125006
5669,594,123,133377,125009
5671,574,123,133387,125011
5675,553,123,133394,125011
5677,517,123,133405,125013
5680,504,123,133420,125019
5682,491,123,133417,125013
5684,484,123,133423,125016
5687,472,123,133431,125018
5689,468,123,133439,125021
5692,467,123,133420,125031
5694,468,123,133448,125041
5697,469,123,133461,125033
5699,474,123,133462,125039
5702,477,123,133477,125048
5704,479,123,133473,125045
5706,480,123,133476,125048
5709,482,123,133491,125049
5711,483,123,133493,125052
5714,484,123,133500,125053
5716,484,123,133508,125062
5720,485,122,133511,125065
5722,486,122,133523,125065
5724,486,122,133522,125068
5727,486,123,133528,125066
5729,486,123,133532,125076
5732,487,123,133537,125070
5734,487,123,133560,125080
5737,488,123,133557,125084
5739,489,123,133570,125083
5742,490,123,133560,125094
5744,490,123,133578,125084
5746,490,123,133590,125099
5749,491,123,133589,125095
5751,491,122,133605,125096
5754,491,122,133600,125108
5756,491,123,133613,125107
5760,491,122,133619,125109
5762,491,123,133619,125117
5764,492,123,133643,125121
5767,493,123,133632,125120
5769,493,123,133638,125117
5772,493,123,133641,125120
5774,493,123,133657,125126
5777,494,123,133673,125120
5779,495,123,133661,125124
5782,495,123,133672,125129
5784,496,123,133671,125127
5786,496,123,133678,125132
5789,497,123,133687,125130
5791,497,123,133695,125139
5794,497,123,133689,125145
5796,498,123,133700,125144
5799,498,123,133706,125146
5801,498,123,133705,125150
5804,499,123,133708,125147
5807,500,123,133695,125142
5809,500,123,133693,125139
5812,500,123,133659,125123
5814,500,123,133654,125113
5817,500,123,133620,125079
5819,501,123,133600,125069
5822,502,123,133569,125080
5824,502,123,133528,125066
5826,502,123,133498,125047
5829,503,123,133448,125028
5831,502,123,133409,125008
5834,503,123,133362,124995
5836,502,123,133317,124979
5839,502,123,133317,124958
5841,502,123,133233,124950
5843,502,123,133198,124936
5847,503,123,133155,124919
5849,504,123,133133,124905
5852,503,123,133133,124889
5854,504,123,133053,124877
5857,504,123,133010,124877
5859,504,124,132989,124851
5862,504,124,132958,124841
5864,504,123,132940,124831
5866,504,123,132915,124822
5869,504,123,132879,124808
5871,503,123,132872,124804
5874,503,123,132872,124799
5876,503,123,132832,124799
5879,504,124,132821,124799
5881,504,124,132805,124791
5883,504,123,132805,124776
5886,504,123,132787,124770
5889,505,123,132770,124770
5892,505,123,132770,124770
5894,506,123,132758,124761
5897,505,124,132758,124758
5899,505,124,132753,124758
5902,505,124,132752,124761
5904,505,124,132750,124776
5906,505,123,132753,124776
5909,506,124,132752,124757
5911,506,124,132746,124767
5914,506,124,132746,124755
5916,506,124,132745,124751
5919,506,124,132741,124751
5921,507,124,132745,124757
5923,507,124,132745,124753
5926,507,124,132751,124755
5928,507,124,132757,124755
5932,507,124,132766,124762
5934,507,124,132766,124762
5937,508,124,132756,124761
5939,508,124,132773,124761
5942,508,124,132784,124763
5944,508,124,132786,124764
5946,509,124,132786,124768
5949,509,124,132784,124771
5951,509,124,132779,124771
5954,509,124,132788,124767
5956,510,125,132788,124765
5959,510,124,132791,124770
5961,511,125,132793,124763
5963,511,124,132798,124763
5966,511,124,132798,124768
5968,511,124,132809,124771
5971,510,124,132812,124763
5974,511,125,132806,124763
5977,510,125,132814,124770
5979,510,125,132814,124768
5982,510,125,132816,124773
5984,511,125,132813,124773
5986,511,125,132814,124773
5989,511,125,132818,124765
5991,511,125,132809,124765
5994,510,125,132811,124761
5996,511,125,132811,124759
5999,511,125,132815,124757
6001,512,125,132809,124757
6003,512,125,132823,124756
6006,512,125,132823,124747
6008,512,125,132816,124758
6011,512,125,132814,124758
6013,512,125,132814,124759
6017,512,125,132817,124759
6019,512,125,132829,124756
6022,512,125,132827,124764
6024,513,125,132827,124757
6026,513,125,132833,124758
6029,513,125,132828,124758
6031,513,125,132828,124758
6034,513,125,132829,124758
6036,513,125,132843,124760
6039,513,125,132852,124759
6041,513,125,132852,124766
6043,513,125,132847,124765
6046,513,125,132860,124765
6048,513,125,132875,124775
6051,514,125,132875,124773
6053,513,125,132877,124779
6056,513,126,132888,124779
6059,513,126,132899,124777
6062,513,125,132899,124784
6064,513,125,132902,124789
6066,513,125,132919,124789
6069,513,126,132931,124792
6071,513,126,132936,124792
6074,513,126,132936,124798
6076,513,126,132950,124801
6079,513,126,132959,124801
6081,513,126,132958,124806
6083,513,126,132958,124808
6086,512,126,132968,124812
6088,512,126,132984,124812
6091,512,126,132988,124816
6093,512,126,132998,124820
6096,512,126,132998,124818
6098,512,127,133002,124824
6102,512,126,133007,124824
6104,511,127,133007,124828
6106,512,127,133021,124827
6109,512,127,133017,124827
6111,511,127,133020,124828
6114,512,127,133020,124828
6116,512,127,133014,124826
6119,512,127,133020,124831
6121,512,127,133020,124837
6123,512,127,133034,124835
6126,512,127,133029,124835
6128,511,127,133034,124831
6131,511,127,133030,124836
6133,511,127,133032,124839
6136,511,127,133043,124832
6138,511,127,133033,124830
6141,511,127,133045,124833
6144,510,127,133035,124830
6146,510,127,133040,124827
6149,510,127,133035,124819
6151,510,127,133038,124826
6154,510,127,133023,124833
6156,510,127,133030,124826
6159,510,127,133031,124830
6161,511,127,133041,124818
6163,511,127,133052,124826
6166,510,127,133039,124827
6168,509,127,133039,124819
6171,508,127,133043,124826
6173,508,127,133040,124826
6176,509,127,133035,124838
6178,510,127,133056,124825
6181,512,127,133059,124833
6183,516,128,133047,124831
6185,518,127,133057,124836
6189,519,127,133065,124842
6191,520,127,133047,124833
6194,521,127,133060,124828
6196,522,127,133052,124828
6199,522,127,133064,124835
6201,522,127,133081,124835
6203,521,127,133072,124832
6206,521,127,133090,124844
6208,520,127,133084,124844
6211,519,127,133088,124839
6213,518,127,133089,124847
6216,516,127,133094,124849
6218,514,127,133108,124853
6221,512,127,133106,124850
6223,509,127,133116,124856
6225,507,127,133112,124858
6228,506,128,133127,124853
6231,505,128,133139,124861
6234,505,128,133129,124859
6236,505,128,133137,124861
6239,504,128,133151,124866
6241,504,128,133158,124867
6243,504,128,133174,124871
6246,505,128,133169,124870
6248,505,128,133180,124881
6251,505,128,133189,124875
6253,505,128,133198,124880
6256,505,128,133204,124878
6258,505,128,133202,124869
6261,505,128,133204,124883
6263,505,128,133211,124882
6265,505,129,133225,124894
6268,504,129,133230,124894
6270,504,129,133247,124898
6274,505,129,133249,124898
6276,505,129,133256,124901
6279,505,129,133265,124901
6281,504,129,133272,124907
6283,504,129,133260,124903
6286,501,129,133279,124916
6288,494,129,133290,124909
6291,484,129,133293,124912
6293,470,129,133293,124915
6296,455,129,133304,124923
6298,427,129,133307,124924
6301,415,129,133327,124923
6303,392,129,133326,124912
6305,385,129,133349,124937
6308,385,129,133347,124934
6310,393,129,133358,124937
6313,408,129,133359,124937
6316,471,129,133371,124943
6319,514,129,133386,124943
6321,566,129,133378,124948
6323,619,129,133392,124950
6326,680,129,133393,124950
6328,700,130,133417,124958
6331,708,129,133417,124961
6333,706,130,133417,124962
6336,699,130,133430,124962
6338,672,130,133442,124974
6341,661,130,133442,124972
6343,648,130,133451,124976
6345,634,130,133452,124976
6348,598,130,133474,124975
6350,578,130,133480,124978
6353,556,130,133480,124991
6355,530,130,133487,124991
6359,517,130,133495,124991
6361,493,130,133496,125013
6363,485,130,133496,124997
6366,477,130,133506,125001
6368,472,130,133517,125001
6371,467,130,133537,125006
6373,467,130,133528,125007
6376,469,130,133528,125012
6378,471,130,133548,125016
6381,475,130,133550,125028
6383,478,130,133573,125024
6385,479,130,133569,125024
6388,481,130,133579,125033
6390,481,130,133579,125031
6393,482,130,133576,125029
6395,482,130,133589,125029
6398,483,130,133603,125030
6401,484,130,133609,125033
6403,485,130,133609,125037
6406,486,130,133616,125048
6408,486,130,133624,125048
6411,487,130,133628,125050
6413,487,130,133628,125046
6416,487,130,133635,125044
6418,487,130,133637,125044
6421,487,130,133656,125053
6423,489,130,133657,125062
6425,489,130,133657,125063
6428,489,130,133672,125061
6430,490,131,133679,125061
6433,490,130,133686,125060
6435,491,130,133686,125067
6438,492,130,133704,125074
6440,492,130,133704,125072
6443,493,130,133714,125072
6446,493,130,133714,125080
6448,493,130,133718,125090
6451,493,130,133723,125081
6453,494,131,133730,125081
6456,494,131,133750,125091
6458,495,131,133750,125104
6461,495,131,133752,125103
6463,496,130,133768,125103
6465,497,130,133781,125103
6468,498,130,133793,125111
6470,498,131,133783,125111
6473,499,131,133783,125114
6475,499,131,133794,125118
6478,499,131,133813,125114
6480,499,131,133797,125130
6482,499,131,133797,125122
6486,500,131,133795,125122
6488,500,131,133788,125115
6491,500,131,133788,125108
6493,501,131,133779,125094
6496,501,131,133731,125094
6498,502,131,133720,125081
6501,502,131,133688,125070
6503,502,131,133688,125046
6505,501,131,133652,125028
6508,502,132,133570,125028
6510,502,131,133542,125015
6513,502,131,133542,124982
6515,502,131,133505,124964
6518,504,131,133421,124964
6520,503,131,133380,124951
6522,503,131,133331,124934
6525,504,131,133331,124902
6528,504,131,133297,124890
6531,504,131,133219,124890
6533,504,131,133219,124864
6536,504,132,133159,124864
6538,504,132,133131,124856
6541,504,132,133131,124837
6543,504,132,133096,124821
6545,504,132,133067,124813
6548,504,132,133026,124813
6550,504,132,133026,124792
6553,504,132,133002,124792
6555,504,132,132986,124782
6558,504,132,132979,124782
6560,504,132,132949,124769
6562,505,132,132965,124775
6565,505,132,132934,124772
6567,506,132,132926,124772
6571,506,132,132915,124765
6573,506,132,132898,124761
6576,506,132,132898,124763
6578,506,132,132895,124761
6581,505,132,132893,124761
6583,505,132,132893,124764
6585,505,132,132894,124755
6588,506,132,132889,124755
6590,506,132,132889,124755
6593,507,132,132883,124749
6595,507,132,132885,124759
6598,507,132,132894,124763
6600,507,132,132894,124764
6602,507,131,132907,124758
6605,508,132,132908,124757
6607,508,132,132913,124756
6610,508,131,132915,124760
6612,508,131,132920,124755
6616,508,131,132919,124762
6618,509,131,132925,124764
6621,509,131,132933,124764
6623,509,131,132938,124760
6625,509,131,132942,124763
6628,510,131,132944,124766
6630,510,131,132951,124764
6633,510,131,132928,124768
6635,511,131,132943,124763
6638,510,131,132946,124762
6640,511,131,132949,124768
6642,511,131,132966,124769
6645,510,131,132964,124767
6647,510,131,132959,124770
6650,510,131,132968,124764
6652,509,131,132960,124763
6656,509,131,132968,124769
6658,509,131,132977,124771
6661,509,131,132981,124772
6663,510,131,132989,124777
6665,509,131,132984,124772
6668,509,131,132991,124776
6670,509,131,132986,124782
6673,509,131,132988,124778
6675,510,131,132996,124775
6678,509,131,132992,124781
6680,509,131,132997,124769
6682,509,131,132996,124769
6685,509,131,132994,124769
6687,509,131,132978,124771
6690,509,131,132997,124766
6692,509,131,132998,124768
6695,509,131,133004,124768
6697,510,131,133006,124772
6701,510,131,132998,124774
6703,511,131,133001,124774
6705,512,131,133006,124773
6708,512,131,133011,124772
6710,511,131,133012,124769
6713,511,131,133008,124771
6715,511,131,133025,124776
6718,511,131,133028,124780
6720,511,131,133033,124782
6722,511,131,133038,124787
6725,511,131,133038,124781
6727,511,131,133050,124788
6730,511,131,133051,124793
6732,511,131,133069,124791
6735,511,131,133070,124774
6737,511,131,133072,124780
6740,512,131,133088,124803
6743,512,131,133098,124798
6745,512,131,133109,124804
6748,512,131,133113,124808
6750,512,130,133111,124810
6753,511,131,133114,124812
6755,511,131,133123,124813
6758,511,131,133123,124815
6760,511,131,133145,124819
6762,511,131,133139,124824
6765,511,131,133145,124824
6767,511,131,133155,124827
6770,511,131,133155,124831
6772,511,131,133166,124833
6775,511,131,133167,124833
6777,512,130,133175,124819
6780,512,131,133174,124827
6782,512,130,133183,124835
6785,512,130,133188,124836
6788,512,130,133187,124831
6790,512,130,133198,124837
6793,511,130,133198,124833
6795,511,130,133195,124833
6798,511,131,133193,124833
6800,511,130,133206,124839
6802,511,130,133206,124830
6805,511,130,133206,124831
6807,511,130,133208,124831
6810,511,130,133210,124831
6812,511,130,133214,124837
6815,511,130,133214,124833
6817,510,130,133210,124830
6820,510,130,133211,124841
6822,510,130,133213,124837
6824,510,130,133215,124837
6828,511,130,133219,124832
6830,511,130,133212,124833
6833,510,130,133212,124838
6835,510,130,133217,124833
6838,511,130,133207,124833
6840,510,130,133216,124849
6842,510,130,133216,124838
6845,510,130,133224,124843
6847,510,130,133229,124843
6850,511,130,133224,124846
6852,512,130,133227,124840
6855,513,130,133227,124841
6857,515,130,133243,124838
6860,518,130,133239,124847
6862,519,130,133242,124849
6864,520,130,133236,124849
6867,521,130,133243,124852
6870,521,130,133243,124847
6873,521,130,133250,124850
6875,521,130,133250,124850
6878,521,130,133261,124852
6880,520,130,133259,124853
6882,520,130,133259,124858
6885,520,130,133268,124858
6887,519,130,133275,124858
6890,516,129,133289,124869
6892,514,129,133289,124868
6895,512,129,133288,124862
6897,510,130,133309,124862
6900,509,130,133315,124869
6902,506,129,133315,124869
6904,506,129,133315,124874
6907,506,129,133326,124871
6909,505,129,133333,124877
6913,505,129,133333,124877
6915,505,130,133334,124877
6918,505,129,133340,124880
6920,504,129,133340,124879
6922,505,129,133351,124884
6925,505,129,133366,124884
6927,505,129,133375,124886
6930,505,129,133381,124892
6932,504,130,133381,124896
6935,504,130,133389,124898
6937,504,130,133391,124898
6940,504,130,133380,124904
6942,505,130,133380,124904
6944,505,129,133386,124895
6947,506,129,133426,124895
6949,505,129,133446,124903
6952,505,129,133438,124905
6955,504,130,133438,124919
6958,503,129,133452,124924
6960,501,130,133464,124924
6962,496,129,133434,124926
6965,481,129,133434,124922
6967,467,130,133441,124930
6970,457,130,133490,124930
6972,442,130,133500,124929
6975,411,130,133500,124936
6977,396,130,133499,124934
6980,388,130,133514,124934
6982,385,130,133532,124935
6984,390,130,133532,124941
6987,401,130,133532,124949
6989,462,130,133520,124951
6992,495,130,133542,124951
6994,530,130,133542,124951
6998,614,130,133560,124951
7000,651,130,133557,124954
7002,683,130,133557,124956
7005,709,130,133563,124964
7007,709,130,133577,124964
7010,697,130,133596,124963
7012,684,130,133593,124981
7015,672,130,133593,124974
7017,661,130,133606,124974
7020,626,130,133608,124978
7022,626,130,133624,124979
7024,584,130,133612,124979
7027,564,130,133622,124995
7029,544,130,133625,124994
7032,529,130,133659,124994
7034,497,130,133643,124998
7037,488,130,133654,124998
7040,481,130,133659,124998
7042,476,130,133684,124995
7045,471,130,133670,124995
7047,468,130,133679,124999
7050,469,130,133685,125009
7052,471,130,133685,125011
7055,473,130,133690,125014
7057,476,130,133720,125014
7060,479,130,133711,125017
7062,480,130,133714,125018
7064,482,130,133729,125022
7067,482,130,133722,125022
7069,482,130,133735,125031
7072,483,130,133741,125026
7074,484,130,133752,125030
7077,484,130,133771,125038
7079,484,130,133763,125034
7081,485,130,133770,125040
7085,486,130,133786,125048
7087,486,130,133793,125049
7090,487,130,133782,125053
7092,487,130,133804,125054
7095,487,130,133811,125060
7097,488,130,133819,125063
7100,488,130,133832,125065
7102,488,130,133834,125070
7104,489,130,133841,125069
7107,490,130,133854,125080
7109,489,130,133861,125083
7112,489,130,133859,125082
7114,490,130,133869,125079
7117,490,130,133877,125092
7119,491,130,133895,125093
7121,492,130,133896,125096
7124,493,130,133906,125096
7127,493,130,133908,125103
7130,495,130,133938,125106
7132,495,130,133931,125104
7135,495,130,133938,125116
7137,495,130,133945,125107
7140,496,130,133947,125113
7142,496,130,133966,125114
7144,497,130,133961,125129
7147,497,130,133968,125124
7149,497,130,133985,125129
7152,498,130,133985,125130
7154,499,130,133995,125131
7157,499,130,133993,125135
7159,499,130,133991,125129
7161,499,130,133994,125127
7164,500,130,133975,125120
7166,500,131,133959,125121
7170,500,130,133948,125107
7172,501,131,133919,125104
7175,501,130,133908,125090
7177,502,130,133872,125067
7180,503,130,133835,125064
7182,504,130,133811,125046
7184,504,130,133764,125036
7187,503,130,133730,125011
7189,503,130,133687,124998
7192,502,130,133652,124990
7194,503,130,133606,124970
7197,503,130,133571,124951
7199,503,131,133533,124937
7201,503,131,133496,124929
7204,504,131,133456,124902
7206,504,131,133421,124897
7209,504,131,133387,124887
7212,504,131,133360,124876
7215,504,131,133329,124846
7217,504,131,133295,124827
7220,505,131,133277,124850
7222,504,131,133250,124840
7224,504,130,133237,124833
7227,504,130,133212,124831
7229,504,130,133195,124819
7232,504,131,133180,124810
7234,504,131,133162,124813
7237,504,131,133162,124799
7239,504,131,133146,124805
7241,505,131,133136,124801
7244,505,131,133128,124799
7246,506,131,133128,124799
7249,505,131,133128,124790
7251,506,131,133111,124793
7255,506,131,133111,124793
7257,506,131,133120,124789
7260,507,131,133101,124786
7262,507,130,133115,124786
7264,508,131,133109,124782
7267,508,131,133108,124782
7269,508,131,133111,124787
7272,508,131,133111,124785
7274,508,131,133115,124788
7277,508,131,133117,124788
7279,509,131,133136,124811
7281,509,130,133136,124795
7284,509,131,133135,124785
7286,510,130,133137,124785
7289,511,131,133153,124792
7291,511,130,133150,124790
7294,510,131,133150,124795
7297,510,131,133159,124790
7300,510,131,133161,124802
7302,510,131,133176,124796
7304,510,131,133173,124796
7307,511,131,133192,124802
7309,511,131,133180,124806
7312,511,131,133180,124808
7314,510,131,133184,124803
7317,510,131,133190,124803
7319,510,131,133192,124814
7321,509,131,133192,124810
7324,509,131,133198,124811
7326,509,131,133205,124811
7329,509,131,133210,124804
7331,508,131,133210,124815
7334,508,131,133213,124811
7336,508,131,133215,124811
7340,508,131,133215,124813
7342,508,130,133220,124811
7344,508,131,133220,124809
7347,508,131,133222,124812
7349,507,131,133219,124812
7352,507,131,133240,124815
7354,506,131,133240,124808
7357,507,131,133236,124818
7359,508,131,133232,124817
7361,508,131,133232,124821
7364,508,131,133232,124821
7366,508,131,133239,124826
7369,508,131,133243,124822
7371,509,131,133243,124821
7374,509,130,133245,124825
7376,509,131,133245,124825
7379,509,131,133252,124816
7382,510,131,133252,124822
7384,509,131,133257,124824
7387,509,131,133267,124824
7389,509,131,133265,124828
7392,509,131,133259,124834
7394,510,131,133259,124829
7397,510,130,133282,124835
7399,510,131,133291,124845
7401,510,131,133291,124837
7404,510,131,133308,124837
7406,510,131,133314,124842
7409,509,131,133314,124845
7411,509,131,133319,124851
7414,510,131,133337,124851
7416,510,131,133353,124849
7419,510,131,133353,124861
7421,509,131,133353,124858
7424,509,131,133360,124861
7427,510,131,133379,124861
7429,510,131,133395,124870
7432,510,131,133395,124871
7434,510,131,133397,124871
7437,510,131,133399,124871
7439,510,131,133416,124874
7441,510,131,133389,124880
7444,510,131,133389,124878
7446,511,131,133399,124882
7449,512,131,133432,124882
7451,512,131,133429,124885
7454,512,131,133429,124888
7456,511,131,133442,124890
7459,511,131,133452,124890
7461,511,132,133458,124895
7463,511,131,133445,124895
7467,511,132,133445,124889
7469,511,131,133459,124897
7472,510,132,133453,124897
7474,511,132,133453,124896
7477,511,132,133461,124896
7479,511,132,133460,124892
7481,511,131,133460,124894
7484,511,132,133458,124895
7486,511,132,133471,124895
7489,511,132,133460,124899
7491,510,132,133458,124895
7494,510,132,133458,124897
7496,510,132,133480,124898
7499,510,132,133466,124898
7501,509,132,133466,124889
7503,510,132,133477,124888
7506,510,132,133460,124888
7508,514,132,133455,124889
7512,516,132,133438,124886
7514,518,132,133438,124889
7517,520,132,133457,124886
7519,522,132,133454,124886
7521,523,132,133450,124897
7524,524,132,133450,124892
7526,524,132,133481,124889
7529,523,132,133458,124886
7531,523,132,133449,124885
7534,523,132,133466,124890
7536,523,132,133473,124884
7539,521,132,133473,124893
7541,520,132,133481,124888
7543,518,132,133469,124888
7546,517,132,133481,124887
7548,514,132,133483,124888
7552,512,132,133485,124890
7554,508,132,133480,124893
7557,507,132,133492,124897
7559,506,132,133498,124896
7561,506,132,133495,124899
7564,506,132,133507,124899
7566,505,132,133509,124901
7569,505,132,133506,124909
7571,505,132,133520,124908
7574,505,132,133534,124917
7576,505,132,133527,124921
7579,505,132,133555,124922
7581,506,132,133543,124920
7583,505,132,133554,124927
7586,505,132,133558,124931
7588,505,132,133566,124926
7591,505,132,133580,124934
7593,505,132,133580,124934
7597,505,132,133589,124938
7599,505,132,133599,124931
7601,505,132,133605,124936
7604,505,132,133620,124941
7606,505,132,133617,124941
7609,505,132,133620,124953
7611,505,132,133638,124955
7614,504,132,133637,124954
7616,501,132,133657,124956
7619,495,132,133646,124966
7621,477,132,133674,124963
7623,466,132,133666,124976
7626,452,132,133674,124975
7628,434,132,133691,124971
7631,417,132,133695,124975
7633,395,132,133694,124976
7636,388,132,133700,124977
7639,388,132,133702,124984
7641,398,132,133715,124982
7644,438,132,133725,124989
7646,482,132,133722,124990
7649,524,132,133732,124978
7651,568,132,133732,124983
7654,652,132,133747,124992
7656,682,132,133765,125002
7659,699,132,133761,125005
7661,705,132,133769,125002
7663,702,133,133771,124988
7666,692,132,133772,124991
7668,664,133,133781,125013
7671,653,133,133791,125017
7673,640,133,133802,125017
7676,623,133,133813,125022
7678,593,133,133809,125025
7681,574,133,133815,125023
7684,553,133,133836,125033
7686,530,133,133829,125007
7689,515,133,133844,125003
7691,492,133,133855,125037
7694,483,133,133850,125038
7696,477,133,133859,125048
7699,472,133,133870,125040
7701,467,133,133864,125040
7703,468,133,133888,125044
7706,469,133,133879,125051
7708,472,133,133888,125054
7711,474,133,133890,125053
7713,479,134,133898,125060
7716,480,134,133898,125058
7718,482,134,133914,125066
7720,483,133,133913,125066
7724,484,134,133927,125062
7726,485,134,133924,125064
7729,485,134,133929,125062
7731,485,133,133940,125079
7734,486,134,133933,125075
7736,487,134,133948,125073
7739,487,134,133948,125076
7741,487,133,133959,125086
7743,487,134,133959,125071
7746,488,134,133962,125077
7748,488,134,133976,125095
7751,489,134,133977,125095
7753,490,134,133990,125108
7756,490,134,133998,125078
7758,491,134,134002,125092
7760,491,134,134006,125092
7763,492,134,134019,125092
7766,492,134,134018,125099
7769,492,134,134027,125099
7771,492,134,134027,125101
7774,492,134,134041,125103
7776,493,134,134036,125103
7779,494,134,134056,125104
7781,495,134,134062,125122
7783,495,134,134062,125110
7786,495,135,134072,125110
7788,495,134,134069,125127
7791,496,135,134079,125127
7793,497,134,134079,125128
7796,498,134,134083,125120
7798,499,134,134095,125127
7800,499,134,134095,125127
7803,499,134,134105,125137
7805,499,135,134105,125136
7809,499,134,134114,125134
7811,500,135,134111,125134
7814,500,135,134119,125138
7816,500,135,134120,125138
7819,501,135,134108,125138
7821,502,135,134108,125138
7823,502,135,134099,125122
7826,502,135,134063,125122
7828,502,135,134037,125112
7831,502,135,134014,125099
7833,502,135,134014,125071
7836,503,135,133960,125051
7838,503,135,133915,125041
7840,503,135,133915,125023
7843,503,136,133831,125023
7845,502,135,133794,125008
7848,503,135,133749,124966
7851,503,135,133749,124960
7854,503,135,133678,124940
7856,504,135,133628,124940
7859,504,135,133587,124927
7861,504,136,133587,124897
7863,504,136,133558,124892
7866,504,136,133497,124892
7868,504,136,133462,124875
7871,504,136,133427,124853
7873,504,136,133427,124841
7876,504,136,133404,124834
7878,504,136,133352,124834
7880,504,136,133307,124828
7883,505,136,133307,124813
7885,505,136,133325,124797
7888,505,136,133285,124797
7890,505,136,133234,124793
7894,505,136,133224,124782
7896,505,136,133224,124789
7899,505,136,133248,124789
7901,505,136,133232,124786
7903,505,136,133216,124785
7906,505,136,133216,124777
7908,505,136,133219,124772
7911,505,137,133215,124774
7913,505,137,133212,124772
7916,506,137,133204,124773
7918,506,137,133204,124773
7920,506,136,133204,124768
7923,507,137,133214,124769
7925,507,137,133212,124773
7928,507,137,133201,124773
7930,507,137,133217,124772
7933,507,137,133221,124772
7936,507,137,133222,124771
7939,508,137,133222,124776
7941,508,137,133232,124777
7943,509,137,133227,124781
7946,510,137,133243,124781
7948,509,137,133243,124788
7951,510,137,133243,124788
7953,510,138,133257,124789
7956,510,137,133267,124789
7958,510,138,133251,124785
7960,511,138,133286,124790
7963,511,138,133267,124790
7965,512,138,133276,124784
7968,512,138,133283,124791
7970,512,138,133283,124793
7973,512,138,133284,124792
7975,512,138,133300,124792
7979,511,138,133288,124798
7981,511,138,133294,124797
7983,511,138,133322,124793
7986,511,138,133297,124803
7988,511,138,133304,124795
7991,511,138,133310,124797
7993,511,138,133321,124795
7996,510,138,133316,124791
7998,509,138,133317,124794
8000,509,138,133322,124794
8003,509,138,133313,124795
8005,509,138,133333,124792
8008,509,138,133317,124794
8010,509,138,133314,124794
8013,509,138,133320,124792
8015,509,138,133319,124789
8018,509,138,133325,124797
8020,511,138,133326,124794
8023,512,138,133333,124793
8026,512,138,133326,124799
8028,512,138,133330,124787
8031,511,138,133336,124792
8033,511,138,133335,124786
8036,511,138,133318,124787
8038,511,138,133341,124783
8040,510,138,133343,124788
8043,511,138,133334,124796
8045,511,138,133367,124791
8048,511,138,133351,124796
8050,511,138,133379,124802
8053,511,137,133363,124799
8055,512,138,133387,124806
8058,512,137,133369,124810
8060,513,138,133389,124805
8062,512,138,133405,124813
8066,512,138,133401,124811
8068,511,138,133421,124823
8071,511,137,133418,124824
8073,510,138,133423,124819
8076,510,138,133435,124829
8078,510,138,133434,124828
8080,510,138,133437,124830
8083,510,137,133452,124831
8085,510,137,133465,124834
8088,510,137,133467,124834
8090,510,137,133478,124837
8093,511,138,133466,124834
8095,511,138,133490,124829
8098,511,138,133488,124843
8100,511,138,133489,124840
8102,510,138,133507,124842
8105,510,138,133498,124842
8108,510,138,133497,124844
8111,510,138,133512,124850
8113,511,138,133509,124849
8116,512,137,133514,124850
8118,512,138,133509,124851
8120,512,138,133510,124852
8123,511,138,133517,124850
8125,510,138,133513,124862
8128,509,137,133523,124846
8130,509,137,133519,124839
8133,509,137,133517,124836
8135,509,137,133516,124851
8138,509,137,133517,124853
8140,509,138,133516,124858
8142,509,137,133517,124835
8145,509,137,133513,124830
8147,509,137,133525,124857
8151,508,137,133512,124850
8153,507,137,133526,124852
8156,508,137,133519,124851
8158,507,137,133515,124852
8160,507,137,133519,124848
8163,506,137,133526,124849
8165,506,137,133522,124854
8168,506,137,133519,124851
8170,507,138,133524,124857
8173,508,137,133524,124856
8175,509,137,133523,124859
8178,512,137,133525,124859
8180,516,138,133541,124857
8182,518,138,133541,124857
8185,519,137,133547,124855
8187,520,137,133532,124861
8190,521,137,133542,124861
8193,521,138,133546,124859
8196,520,137,133537,124858
8198,520,137,133540,124852
8200,520,137,133546,124852
8203,520,137,133552,124862
8205,519,137,133556,124869
8208,518,137,133556,124869
8210,516,137,133561,124871
8213,514,137,133558,124860
8215,513,137,133564,124865
8218,511,137,133562,124865
8220,508,137,133575,124868
8222,507,137,133575,124873
8225,504,137,133574,124867
8227,504,137,133584,124873
8230,504,137,133584,124873
8232,505,137,133584,124879
8236,505,137,133615,124873
8238,506,137,133617,124879
8240,506,137,133605,124879
8243,506,136,133615,124883
8245,506,137,133614,124888
8248,506,137,133616,124888
8250,505,136,133616,124877
8253,505,137,133627,124887
8255,505,136,133632,124887
8258,505,136,133651,124891
8260,505,136,133646,124899
8262,504,136,133646,124900
8265,503,136,133660,124899
8267,503,136,133661,124899
8270,503,136,133669,124907
8272,504,136,133669,124912
8275,504,136,133678,124913
8278,503,136,133685,124914
8280,502,136,133685,124909
8283,499,136,133693,124911
8285,495,136,133694,124911
8288,486,136,133700,124921
8290,466,136,133700,124924
8293,449,135,133711,124923
8295,438,136,133713,124923
8298,420,135,133729,124928
8300,397,136,133729,124924
8302,388,135,133727,124936
8305,388,135,133733,124932
8307,394,135,133739,124932
8310,432,135,133747,124930
8312,466,135,133747,124933
8315,524,135,133751,124945
8317,561,135,133769,124945
8320,605,135,133776,124941
8323,675,135,133776,124935
8325,698,135,133769,124946
8328,706,135,133783,124951
8330,705,135,133780,124951
8333,683,135,133783,124948
8335,669,135,133783,124955
8338,655,135,133808,124954
8340,646,135,133810,124954
8342,631,135,133791,124958
8345,601,135,133791,124957
8347,580,135,133834,124968
8350,560,135,133841,124968
8352,541,135,133850,124964
8355,522,135,133850,124969
8357,495,135,133850,124971
8359,483,134,133858,124974
8363,477,135,133859,124974
8365,470,135,133873,124979
8368,464,135,133873,124976
8370,464,134,133878,124982
8373,466,134,133879,124982
8375,469,134,133905,124980
8378,472,134,133894,124979
8380,478,134,133894,124984
8382,480,134,133903,124977
8385,481,134,133904,124977
8387,481,134,133895,124990
8390,483,134,133895,124986
8392,483,134,133901,124991
8395,486,134,133928,124991
8397,487,134,133935,124994
8399,489,133,133935,124991
8402,494,134,133935,125000
8404,495,134,133951,125000
8408,495,134,133944,124996
8410,493,134,133960,125002
8413,489,133,133960,125004
8415,489,133,133961,125004
8418,487,133,133971,125004
8420,486,133,133971,125004
8422,486,133,133973,125020
8425,487,133,133993,125020
8427,487,133,133985,125021
8430,488,133,134025,125021
8432,490,133,134002,125021
8435,491,133,134013,125021
8437,491,133,134020,125025
8439,491,133,134033,125028
8442,492,133,134027,125028
8444,494,133,134031,125027
8448,495,133,134044,125038
8450,495,133,134044,125037
8453,496,133,134060,125045
8455,496,133,134082,125045
8458,497,132,134075,125049
8460,497,132,134074,125044
8462,498,132,134101,125050
8465,498,132,134098,125056
8467,500,132,134111,125057
8470,501,132,134114,125063
8472,503,132,134119,125059
8475,503,132,134127,125065
8477,503,132,134126,125059
8479,503,132,134121,125063
8482,502,132,134124,125060
8484,501,132,134108,125056
8487,500,131,134080,125059
8489,500,132,134079,125036
8493,500,131,134058,125030
8495,500,132,134023,125015
8498,500,131,134005,125006
8500,501,131,133964,124993
8502,502,131,133920,124967
8505,504,131,133902,124951
8507,504,131,133844,124939
8510,504,131,133807,124922
8512,505,131,133775,124905
8515,506,131,133727,124894
8517,506,131,133695,124871
8519,505,131,133642,124863
8522,505,131,133616,124842
8524,505,131,133577,124823
8527,506,130,133541,124815
8529,506,131,133500,124796
8532,506,130,133471,124787
8535,506,130,133435,124772
8538,505,130,133399,124777
8540,505,130,133384,124755
8542,505,130,133342,124752
8545,505,130,133319,124737
8547,505,130,133303,124729
8550,505,130,133276,124724
8552,506,130,133271,124716
8555,506,130,133249,124715
8557,506,130,133232,124710
8559,506,130,133225,124709
8562,507,130,133206,124694
8564,506,130,133190,124696
8567,507,130,133200,124694
8569,507,130,133183,124694
8572,507,130,133191,124689
8574,508,129,133175,124681
8578,509,129,133164,124693
8580,509,129,133172,124692
8582,509,129,133166,124688
8585,508,129,133165,124692
8587,508,129,133172,124701
8590,509,129,133168,124691
8592,508,129,133177,124692
8595,508,129,133180,124696
8597,509,129,133181,124698
8599,509,129,133179,124694
8602,511,129,133184,124699
8604,511,129,133190,124701
8607,512,129,133198,124683
8609,512,129,133205,124687
8612,512,128,133207,124692
8614,512,129,133210,124715
8617,512,128,133215,124708
8620,512,128,133227,124685
8622,512,128,133233,124710
8625,512,128,133235,124718
8627,513,128,133248,124719
8630,513,128,133245,124716
8632,513,128,133243,124713
8635,513,128,133243,124716
8637,512,128,133254,124718
8639,513,128,133250,124716
8642,513,128,133263,124721
8644,512,128,133266,124725
8647,512,128,133266,124722
8649,511,128,133268,124726
8652,511,128,133273,124726
8654,510,128,133280,124725
8657,510,128,133282,124718
8659,510,128,133291,124721
8662,510,127,133288,124723
8665,510,128,133282,124720
8667,510,128,133293,124724
8670,509,128,133293,124721
8672,509,128,133291,124722
8675,510,128,133291,124722
8677,510,127,133289,124738
8679,511,127,133289,124718
8682,511,127,133298,124723
8684,511,127,133295,124723
8687,510,127,133313,124717
8689,509,127,133310,124722
8692,509,127,133310,124730
8694,509,127,133311,124718
8697,509,127,133312,124724
8699,509,127,133320,124728
8701,510,127,133321,124728
8705,510,127,133333,124730
8707,510,127,133331,124736
8710,510,127,133331,124728
8712,510,127,133344,124725
8715,511,127,133344,124725
8717,512,127,133356,124749
8719,512,127,133356,124745
8722,513,127,133364,124746
8724,513,127,133384,124746
8727,514,127,133393,124755
8729,514,127,133393,124754
8732,514,127,133399,124762
8734,514,126,133415,124762
8737,514,127,133427,124761
8739,514,126,133437,124762
8741,512,127,133437,124774
8744,512,127,133456,124772
8747,511,127,133459,124772
8750,511,127,133474,124777
8752,511,127,133474,124784
8755,511,127,133484,124776
8757,511,127,133493,124776
8759,511,127,133506,124798
8762,512,127,133513,124791
8764,511,127,133513,124807
8767,511,127,133525,124800
8769,512,127,133519,124800
8772,512,126,133536,124807
8774,511,126,133536,124806
8777,511,126,133549,124810
8779,512,127,133543,124810
8781,511,126,133544,124812
8784,511,126,133544,124805
8786,511,126,133556,124815
8790,511,126,133549,124813
8792,511,126,133563,124813
8795,511,126,133567,124822
8797,511,126,133567,124818
8799,510,126,133566,124820
8802,510,126,133566,124820
8804,510,126,133560,124816
8807,510,126,133560,124813
8809,510,126,133558,124816
8812,510,126,133573,124816
8814,510,126,133575,124810
8817,509,126,133569,124817
8819,509,126,133569,124812
8821,509,126,133533,124808
8824,510,126,133569,124808
8826,510,126,133575,124812
8829,511,126,133567,124810
8832,512,126,133567,124810
8835,513,126,133570,124810
8837,515,126,133576,124809
8839,517,126,133540,124809
8842,521,126,133540,124809
8844,522,126,133568,124812
8847,522,126,133570,124819
8849,522,126,133572,124807
8852,522,126,133580,124807
8854,522,126,133585,124821
8857,521,126,133585,124815
8859,521,126,133574,124823
8861,520,126,133581,124823
8864,520,126,133596,124823
8866,519,126,133592,124820
8869,517,126,133592,124820
8871,517,126,133592,124821
8875,513,126,133607,124821
8877,511,126,133611,124827
8879,509,126,133611,124840
8882,506,126,133613,124831
8884,506,127,133626,124831
8887,506,126,133619,124834
8889,506,126,133631,124837
8892,506,126,133631,124838
8894,506,126,133636,124843
8897,506,126,133651,124843
8899,506,126,133651,124854
8901,506,126,133653,124858
8904,506,126,133668,124858
8906,506,126,133667,124858
8909,506,126,133679,124863
8911,506,126,133699,124863
8914,505,126,133686,124862
8916,505,126,133698,124868
8919,506,126,133706,124868
8922,505,126,133699,124870
8924,506,126,133716,124871
8927,506,126,133721,124874
8929,506,126,133739,124876
8932,506,126,133728,124881
8934,505,126,133725,124891
8937,505,126,133746,124881
8939,504,126,133762,124881
8941,501,126,133750,124879
8944,495,126,133768,124894
8946,485,126,133776,124896
8949,471,126,133784,124896
8951,445,126,133790,124899
8954,428,126,133796,124900
8956,414,125,133809,124911
8958,403,126,133801,124917
8962,391,126,133822,124911
8964,395,125,133814,124912
8967,410,125,133829,124919
8969,431,126,133836,124918
8972,469,125,133838,124919
8974,547,126,133859,124927
8977,598,126,133856,124929
8979,636,126,133863,124936
8981,664,126,133875,124931
8984,697,126,133876,124934
8986,698,126,133884,124935
8989,691,126,133895,124946
8991,677,126,133899,124944
8994,660,126,133907,124945
8996,639,126,133924,124949
8998,627,126,133916,124955
9001,616,126,133915,124958
9004,601,126,133935,124956
9007,579,126,133939,124958
9009,557,126,133949,124959
9012,522,126,133957,124963
9014,507,126,133964,124966
9017,497,126,133970,124964
9019,490,126,133966,124970
9021,482,126,133985,124975
9024,476,126,133989,124974
9026,469,126,133986,124976
9029,468,126,133999,124976
9031,469,126,134005,124980
9034,471,125,134010,124988
9036,473,125,134016,124990
9038,476,125,134014,124994
9041,480,126,134031,124999
9043,481,126,134038,125003
9047,482,126,134033,124993
9049,483,125,134052,125001
9052,484,125,134045,125010
9054,485,126,134053,125007
9057,485,125,134069,125012
9059,486,125,134065,125016
9061,486,125,134079,125018
9064,486,126,134072,125015
9066,487,126,134077,125012
9069,487,126,134091,124997
9071,488,126,134096,125007
9074,489,125,134102,125034
9076,490,125,134105,125028
9078,491,126,134107,125036
9081,492,126,134115,125039
9083,492,126,134123,125041
9086,493,126,134131,125041
9089,493,126,134144,125053
9092,494,126,134152,125049
9094,494,126,134144,125049
9097,494,126,134145,125047
9099,493,126,134150,125051
9101,494,126,134161,125057
9104,494,126,134176,125060
9106,494,126,134175,125053
9109,494,126,134185,125061
9111,495,126,134189,125064
9114,495,126,134189,125062
9116,496,126,134200,125070
9118,496,126,134202,125070
9121,498,126,134217,125064
9123,499,126,134220,125073
9126,499,126,134222,125078
9128,499,126,134227,125073
9132,500,126,134233,125083
9134,500,126,134224,125085
9137,500,126,134224,125080
9139,500,126,134227,125078
9141,501,126,134227,125072
9144,501,126,134222,125064
9146,502,126,134193,125075
9149,503,126,134178,125052
9151,502,127,134149,125036
9154,501,126,134149,125020
9156,502,126,134094,125006
9158,503,126,134064,125006
9161,503,127,134018,124977
9163,503,127,134018,124955
9166,503,127,133944,124936
9168,504,127,133888,124936
9171,504,127,133852,124908
9174,505,127,133813,124888
9177,505,127,133813,124875
9179,505,127,133724,124851
9181,505,127,133682,124841
9184,505,127,133655,124828
9186,505,127,133611,124828
9189,505,127,133581,124803
9191,505,127,133537,124788
9194,505,127,133537,124781
9196,505,127,133476,124764
9198,506,127,133449,124764
9201,506,128,133416,124739
9203,506,128,133416,124735
9206,506,127,133367,124732
9208,507,128,133362,124732
9211,507,127,133343,124721
9213,507,128,133343,124705
9217,508,127,133316,124704
9219,508,127,133297,124704
9221,507,127,133284,124696
9224,507,128,133267,124681
9226,506,128,133267,124682
9229,506,128,133257,124681
9231,506,127,133245,124681
9234,506,127,133247,124674
9236,506,128,133241,124673
9238,507,128,133236,124673
9241,506,128,133236,124668
9243,506,128,133230,124668
9246,506,128,133231,124673
9248,506,128,133228,124673
9251,507,128,133230,124671
9253,507,128,133230,124674
9256,507,128,133237,124674
9259,507,128,133230,124674
9261,508,128,133238,124673
9264,508,128,133238,124673
9266,509,128,133256,124674
9269,509,128,133258,124674
9271,509,128,133245,124674
9274,509,128,133276,124680
9276,509,128,133276,124680
9278,509,128,133274,124687
9281,509,128,133287,124687
9283,509,128,133290,124681
9286,510,128,133290,124684
9288,511,128,133299,124688
9291,511,128,133303,124688
9293,511,128,133313,124686
9296,511,128,133317,124688
9298,511,129,133317,124684
9300,511,129,133318,124689
9304,511,129,133322,124689
9306,511,129,133326,124688
9309,511,129,133326,124699
9311,510,129,133331,124697
9314,510,129,133334,124697
9316,510,129,133343,124694
9318,510,129,133344,124696
9321,510,129,133344,124694
9323,510,129,133345,124691
9326,509,129,133350,124690
9328,509,129,133346,124696
9331,509,130,133353,124696
9333,509,130,133357,124700
9336,509,129,133357,124697
9338,509,130,133377,124696
9340,510,130,133359,124696
9344,510,130,133381,124703
9346,510,130,133375,124701
9349,510,130,133375,124703
9351,510,130,133378,124703
9354,511,130,133383,124706
9356,510,130,133392,124705
9358,510,130,133392,124707
9361,510,130,133388,124710
9363,510,130,133395,124710
9366,510,130,133398,124707
9368,510,130,133427,124711
9371,510,130,133427,124714
9373,510,130,133417,124718
9376,510,130,133449,124715
9378,511,130,133434,124719
9380,512,130,133455,124714
9383,512,130,133466,124721
9385,512,130,133466,124720
9389,512,130,133459,124732
9391,511,131,133480,124732
9394,511,131,133476,124726
9396,510,131,133492,124733
9398,510,131,133486,124729
9401,510,131,133500,124736
9403,510,131,133514,124744
9406,510,131,133500,124739
9408,510,131,133524,124741
9411,510,131,133532,124744
9413,511,131,133523,124748
9416,510,131,133540,124750
9418,510,131,133543,124758
9420,510,131,133547,124751
9423,509,131,133565,124758
9425,510,131,133557,124757
9428,510,131,133548,124758
9431,511,131,133566,124763
9434,511,131,133579,124761
9436,510,131,133581,124763
9438,509,131,133592,124769
9441,509,132,133594,124776
9443,509,132,133588,124769
9446,509,131,133596,124773
9448,509,132,133596,124774
9451,509,132,133590,124785
9453,509,132,133603,124773
9456,509,132,133608,124783
9458,509,132,133614,124785
9460,509,132,133620,124784
9463,509,132,133612,124786
9465,509,132,133614,124776
9468,509,132,133619,124780
9470,508,132,133619,124778
9474,508,133,133612,124780
9476,508,133,133620,124783
9478,508,132,133618,124787
9481,508,132,133630,124778
9483,508,133,133607,124781
9486,508,132,133623,124783
9488,508,132,133620,124781
9491,509,133,133614,124789
9493,511,133,133629,124782
9496,513,133,133616,124785
9498,516,133,133627,124788
9500,518,133,133623,124786
9503,520,133,133629,124784
9505,521,133,133638,124784
9508,522,133,133632,124785
9510,522,133,133630,124790
9513,521,133,133640,124796
9516,521,133,133634,124796
9518,521,133,133646,124793
9521,520,133,133644,124789
9523,519,133,133636,124796
9526,519,133,133646,124784
9528,517,133,133661,124802
9531,516,133,133649,124799
9533,512,133,133661,124799
9536,511,133,133669,124801
9538,509,133,133669,124810
9540,508,133,133682,124808
9543,507,134,133679,124807
9545,505,134,133684,124810
9548,505,134,133691,124814
9550,505,134,133702,124814
9553,504,134,133697,124813
9555,504,134,133698,124814
9558,504,134,133706,124815
9561,504,134,133715,124818
9563,504,134,133718,124799
9566,505,134,133723,124801
9568,506,134,133731,124825
9571,506,134,133731,124826
9573,506,134,133752,124833
9576,506,134,133744,124833
9578,505,134,133755,124833
9580,505,135,133764,124834
9583,505,135,133763,124835
9585,505,135,133766,124830
9588,505,135,133770,124834
9590,506,135,133789,124846
9593,506,135,133789,124844
9595,506,135,133800,124850
9597,505,135,133808,124850
9601,498,135,133818,124854
9603,490,135,133821,124854
9606,481,136,133831,124862
9608,469,135,133838,124860
9611,445,136,133842,124862
9613,428,136,133857,124860
9616,416,136,133863,124869
9618,406,136,133861,124888
9620,391,136,133861,124873
9623,391,136,133879,124869
9625,399,136,133875,124869
9628,440,136,133895,124875
9630,483,136,133905,124879
9633,525,136,133905,124890
9635,578,136,133920,124885
9637,620,136,133933,124885
9640,684,137,133946,124903
9643,698,137,133944,124898
9646,706,137,133943,124898
9648,702,137,133943,124904
9651,686,137,133961,124902
9653,672,137,133963,124902
9656,657,137,133979,124905
9658,634,137,133981,124913
9660,620,138,133981,124911
9663,602,138,133985,124908
9665,584,138,134006,124908
9668,565,138,134011,124925
9670,529,137,134011,124924
9673,511,138,134026,124932
9675,493,138,134032,124939
9677,485,138,134032,124929
9680,477,138,134039,124933
9682,471,138,134041,124948
9686,468,138,134065,124946
9688,468,138,134066,124946
9691,469,138,134075,124947
9693,473,138,134075,124948
9696,475,138,134069,124960
9698,477,138,134092,124960
9700,478,138,134093,124951
9703,479,138,134097,124960
9705,481,138,134097,124964
9708,481,139,134102,124961
9710,482,138,134121,124961
9713,482,139,134141,124971
9715,483,139,134139,124968
9717,483,139,134139,124968
9720,484,139,134139,124980
9722,484,139,134151,124987
9725,485,139,134166,124987
9728,485,139,134181,124982
9731,486,139,134188,124986
9733,486,139,134188,124990
9736,486,139,134194,125000
9738,487,139,134202,125000
9740,487,139,134191,125005
9743,489,139,134191,125006
9745,489,139,134221,125007
9748,490,139,134232,125007
9750,490,139,134221,125017
9753,491,139,134261,125012
9755,492,139,134261,125024
9757,493,139,134255,125028
9760,493,139,134276,125028
9762,493,139,134278,125029
9765,494,140,134278,125031
9767,494,139,134290,125029
9771,495,140,134306,125029
9773,495,140,134316,125043
9776,496,140,134321,125044
9778,496,140,134321,125048
9780,496,140,134328,125050
9783,497,140,134336,125050
9785,497,140,134329,125059
9788,498,140,134329,125062
9790,498,140,134345,125065
9793,499,140,134363,125065
9795,499,140,134362,125065
9797,500,140,134362,125055
9800,500,141,134360,125063
9802,501,141,134368,125063
9805,501,141,134327,125057
9807,502,141,134327,125033
9810,502,141,134284,125033
9812,502,141,134284,125023
9816,503,141,134251,124998
9818,503,141,134229,124976
9820,504,141,134182,124976
9823,503,141,134105,124956
9825,503,141,134105,124944
9828,504,141,134062,124901
9830,504,141,134017,124901
9833,504,141,133957,124880
9835,505,141,133865,124859
9837,505,141,133865,124840
9840,505,142,133827,124813
9842,506,142,133807,124813
9845,506,142,133736,124801
9847,506,141,133696,124787
9850,507,142,133668,124771
9852,506,142,133624,124757
9856,506,142,133612,124747
9858,507,142,133559,124735
9860,507,142,133546,124719
9863,506,142,133491,124711
9865,506,142,133491,124697
9868,506,142,133444,124690
9870,506,142,133437,124679
9873,506,142,133405,124671
9875,506,142,133387,124667
9877,506,142,133376,124667
9880,506,142,133353,124655
9882,507,142,133346,124651
9885,507,142,133335,124649
9887,507,142,133331,124638
9890,508,142,133315,124639
9892,508,142,133313,124645
9895,508,142,133297,124633
9897,508,142,133296,124635
9900,508,142,133292,124630
9903,509,142,133301,124626
9905,509,142,133288,124623
9908,510,142,133278,124630
9910,510,142,133293,124627
9913,509,142,133280,124632
9915,509,142,133286,124627
9917,509,142,133286,124625
9920,509,142,133289,124624
9922,510,142,133291,124628
9925,511,142,133295,124623
9927,511,143,133294,124626
9930,511,142,133296,124626
9932,511,143,133293,124631
9935,511,143,133291,124629
9937,512,143,133305,124626
9939,512,143,133292,124628
9943,512,143,133304,124630
9945,512,143,133309,124630
9948,511,143,133314,124631
9950,511,143,133300,124635
9953,511,143,133323,124631
9955,511,143,133316,124626
9957,511,143,133318,124636
9960,511,143,133330,124623
9962,511,143,133321,124629
9965,511,143,133316,124630
9967,510,143,133321,124636
9970,510,143,133332,124627
9972,510,143,133323,124631
9975,510,143,133330,124632
9977,510,143,133329,124635
9979,510,143,133336,124636
9982,510,143,133336,124629
9985,510,143,133338,124628
9988,510,143,133353,124636
9990,509,143,133339,124624
9993,509,143,133337,124633
9995,509,143,133344,124632
9997,509,143,133364,124639
10000,509,143,133347,124634
10002,509,144,133353,124632
10005,509,143,133353,124630
10007,510,144,133355,124630
10010,510,144,133360,124637
10012,510,144,133357,124637
10015,510,143,133362,124638
10017,510,144,133369,124644
10019,509,144,133365,124641
10022,509,144,133381,124641
10024,509,143,133375,124648
10028,510,144,133382,124640
10030,510,144,133395,124651
10033,510,144,133395,124653
10035,509,144,133400,124650
10037,509,144,133411,124654
10040,509,144,133416,124663
10042,509,144,133423,124642
10045,509,144,133426,124640
10047,510,144,133438,124663
10050,510,144,133438,124662
10052,511,144,133460,124672
10055,511,144,133463,124672
10057,511,144,133472,124675
10059,511,144,133484,124679
10062,511,144,133492,124677
10064,510,144,133504,124682
10067,510,145,133506,124679
10070,510,145,133513,124686
10073,510,145,133513,124681
10075,510,145,133523,124690
10077,511,145,133538,124690
10080,511,145,133549,124697
10082,510,145,133553,124699
10085,510,145,133552,124698
10087,510,145,133551,124701
10090,510,145,133555,124696
10092,511,145,133582,124698
10095,510,145,133582,124703
10097,510,145,133587,124699
10099,510,145,133571,124699
10102,510,145,133579,124706
10104,510,145,133579,124707
10107,510,145,133581,124704
10109,510,145,133594,124707
10113,510,145,133594,124707
10115,510,145,133586,124713
10117,509,145,133586,124705
10120,509,145,133593,124702
10122,509,145,133594,124702
10125,509,145,133588,124704
10127,509,145,133594,124702
10130,509,145,133594,124708
10132,509,145,133588,124704
10135,509,146,133593,124704
10137,511,146,133593,124709
10139,513,145,133594,124706
10142,516,145,133598,124706
10144,518,145,133601,124706
10147,520,145,133607,124706
10149,522,146,133607,124700
10152,522,145,133592,124703
10155,523,146,133591,124703
10157,523,146,133603,124700
10160,523,146,133596,124695
10162,522,146,133596,124706
10165,522,146,133593,124697
10167,522,146,133597,124697
10170,521,146,133596,124701
10172,519,146,133596,124704
10175,517,146,133602,124704
10177,516,146,133598,124704
10179,513,146,133615,124706
10182,511,146,133610,124701
10184,508,146,133610,124708
10187,507,146,133612,124708
10189,506,146,133627,124709
10192,505,146,133634,124708
10194,505,146,133634,124711
10196,505,146,133625,124717
10200,506,146,133629,124717
10202,506,146,133634,124717
10205,506,146,133634,124717
10207,506,146,133641,124715
10210,506,146,133650,124725
10212,505,146,133663,124725
10215,505,146,133669,124724
10217,504,146,133669,124732
10219,504,146,133664,124735
10222,505,146,133675,124735
10224,505,146,133683,124735
10227,505,146,133683,124732
10229,505,146,133690,124748
10232,504,146,133704,124744
10234,504,146,133676,124744
10236,505,146,133682,124745
10240,505,146,133682,124754
10242,504,146,133726,124759
10245,501,146,133727,124752
10247,494,146,133733,124755
10250,488,146,133750,124755
10252,477,147,133748,124761
10255,466,146,133748,124764
10257,439,146,133750,124766
10259,424,146,133769,124766
10262,410,146,133778,124766
10264,397,146,133787,124777
10267,387,147,133787,124776
10269,387,147,133792,124776
10272,407,147,133806,124776
10274,430,147,133805,124771
10276,472,147,133805,124782
10279,562,147,133816,124782
10281,605,147,133825,124782
10285,645,147,133823,124785
10287,680,147,133834,124789
10290,709,147,133834,124793
10292,709,147,133847,124796
10295,701,147,133860,124796
10297,689,147,133860,124801
10299,673,147,133864,124811
10302,662,147,133885,124811
10304,635,147,133880,124807
10307,615,147,133901,124813
10309,597,147,133908,124816
10312,577,148,133908,124817
10314,534,148,133932,124821
10316,515,147,133924,124823
10319,501,147,133913,124831
10321,491,147,133937,124831
10324,482,147,133956,124833
10327,471,147,133941,124828
10330,466,147,133969,124833
10332,465,147,133961,124845
10335,465,148,133971,124837
10337,470,147,133983,124844
10339,473,148,133993,124846
10342,476,148,133983,124857
10344,479,147,133997,124852
10347,480,148,134010,124852
10349,481,148,134003,124863
10352,481,148,134022,124859
10354,481,148,134031,124866
10356,482,148,134034,124869
10359,484,148,134051,124883
10361,484,148,134050,124875
10364,485,147,134051,124883
10366,486,148,134061,124875
10370,486,147,134083,124882
10372,487,148,134084,124880
10375,487,148,134090,124886
10377,487,148,134090,124901
10379,488,148,134091,124891
10382,489,147,134108,124903
10384,489,148,134106,124898
10387,489,148,134116,124899
10389,490,148,134134,124902
10392,490,148,134136,124906
10394,491,148,134151,124916
10396,492,148,134148,124910
10399,492,148,134163,124926
10401,492,148,134159,124920
10404,493,148,134175,124917
10406,493,148,134166,124919
10409,493,148,134176,124926
10412,494,148,134193,124922
10415,495,148,134186,124932
10417,496,148,134214,124939
10419,496,148,134216,124940
10422,496,148,134222,124943
10424,497,148,134233,124941
10427,497,148,134235,124947
10429,498,148,134234,124946
10432,498,148,134248,124947
10434,499,148,134262,124954
10436,499,148,134261,124950
10439,500,148,134264,124951
10441,500,148,134258,124958
10444,501,148,134260,124950
10446,500,148,134247,124948
10449,501,148,134238,124947
10451,502,148,134227,124943
10455,502,148,134225,124941
10457,502,148,134197,124925
10459,503,148,134171,124906
10462,503,148,134131,124894
10464,503,148,134092,124872
10467,503,148,134064,124858
10469,503,148,134017,124837
10472,503,148,133959,124822
10474,504,148,133926,124810
10476,504,148,133877,124764
10479,503,148,133829,124771
10481,503,148,133787,124749
10484,503,148,133743,124731
10486,503,148,133697,124710
10489,504,148,133656,124705
10491,504,148,133614,124686
10494,504,148,133614,124670
10497,504,148,133547,124629
10499,504,148,133505,124645
10502,505,148,133484,124637
10504,504,148,133449,124623
10507,504,148,133449,124609
10509,504,148,133390,124600
10512,504,148,133361,124600
10514,504,148,133348,124581
10516,504,148,133348,124572
10519,504,148,133301,124565
10521,504,148,133293,124558
10524,505,148,133280,124558
10526,505,148,133258,124558
10529,504,148,133258,124544
10531,504,148,133246,124549
10534,505,148,133234,124549
10536,504,148,133237,124537
10539,505,148,133219,124543
10542,505,148,133221,124538
10544,505,148,133211,124551
10547,505,148,133206,124543
10549,506,149,133203,124530
10552,506,148,133203,124526
10554,506,148,133203,124526
10556,507,148,133203,124526
