TimeStamp,ECG Data,GSR Data,PPG_Red Data,PPG_IR Data
136102,497,7,115714,109559
136104,497,7,115715,109559
136108,498,7,115715,109550
136110,498,8,115705,109548
6,516,4,0,0
8,517,4,57557,57580
11,518,4,73926,73947
13,521,4,90360,90338
15,525,4,106728,106708
18,529,4,116801,110086
20,538,5,116790,110089
23,542,5,116800,110094
25,546,5,116800,110094
28,549,5,116793,110094
30,557,5,116793,110099
33,560,5,116815,110101
35,563,5,116810,110097
37,566,5,116807,110096
40,569,5,116825,110098
43,574,6,116808,110095
46,575,5,116815,110101
48,577,5,116820,110100
51,578,5,116830,110101
53,579,5,116845,110099
55,579,6,116844,110112
58,579,6,116840,110102
60,578,6,116851,110109
63,579,6,116851,110113
65,579,6,116860,110114
68,579,6,116857,110113
70,580,6,116867,110123
73,580,6,116867,110119
75,580,6,116877,110114
77,580,6,116879,110118
80,579,6,116890,110124
82,579,6,116896,110124
86,579,6,116889,110132
88,578,6,116892,110133
91,577,6,116912,110131
93,577,7,116900,110134
95,576,6,116904,110141
98,576,6,116912,110138
100,575,6,116924,110145
103,574,7,116940,110145
105,573,7,116945,110149
108,572,6,116937,110147
110,570,7,116937,110150
113,568,7,116950,110160
115,566,7,116951,110153
117,565,7,116955,110155
120,564,7,116969,110165
122,564,7,116973,110160
125,563,7,116969,110162
128,562,7,116974,110159
131,560,7,116982,110162
133,559,7,116987,110160
135,559,7,116988,110164
138,559,7,116995,110165
140,558,7,117003,110176
143,560,7,116994,110168
145,560,7,117001,110172
148,561,7,117013,110170
150,560,7,117025,110174
153,560,7,117026,110177
155,558,7,117034,110184
157,557,7,117036,110187
160,556,7,117037,110186
162,555,7,117048,110183
165,553,7,117052,110188
167,551,7,117054,110192
171,549,7,117060,110194
173,548,7,117063,110201
175,547,7,117070,110195
178,546,7,117082,110202
180,544,7,117075,110202
183,542,7,117080,110207
185,542,7,117096,110208
188,542,7,117101,110211
190,542,7,117114,110215
193,543,7,117115,110220
195,542,7,117117,110221
197,542,7,117118,110214
200,542,7,117125,110214
202,541,7,117128,110221
205,540,7,117137,110223
207,540,7,117145,110222
210,539,7,117148,110229
212,539,7,117157,110230
215,538,7,117156,110230
218,537,7,117166,110236
220,537,7,117157,110232
223,536,7,117169,110237
225,535,7,117178,110236
228,535,7,117186,110237
230,533,7,117191,110247
233,533,7,117191,110243
235,530,7,117204,110243
237,527,7,117203,110243
240,511,7,117208,110250
242,499,7,117215,110245
245,488,7,117215,110251
247,471,7,117222,110250
250,457,7,117224,110250
252,427,7,117241,110267
254,419,7,117240,110264
258,414,7,117250,110265
260,419,7,117250,110263
263,433,7,117245,110264
265,471,7,117252,110266
268,503,7,117252,110268
270,554,7,117265,110268
273,595,7,117277,110268
275,673,7,117282,110283
277,691,7,117282,110281
280,714,8,117286,110284
282,714,7,117286,110281
285,702,8,117296,110296
287,683,8,117297,110290
290,671,8,117297,110287
292,657,8,117312,110290
294,642,8,117315,110290
297,602,8,117324,110304
300,583,8,117324,110298
303,555,8,117330,110305
305,538,8,117334,110305
308,523,8,117350,110308
310,505,8,117353,110308
313,500,8,117349,110312
315,490,8,117354,110312
317,486,8,117357,110312
320,481,8,117366,110312
322,481,8,117366,110316
325,483,8,117369,110322
327,485,8,117378,110322
330,487,8,117380,110329
332,490,8,117380,110320
334,491,7,117388,110327
337,492,7,117389,110327
339,493,8,117405,110331
343,492,8,117399,110331
345,493,7,117399,110333
348,493,8,117405,110335
350,494,8,117416,110335
353,494,8,117413,110335
355,494,8,117413,110335
357,495,7,117421,110340
360,496,7,117428,110340
362,496,7,117433,110346
365,496,7,117437,110346
367,497,7,117437,110341
370,498,7,117439,110348
372,498,8,117446,110348
374,498,7,117462,110348
377,500,7,117462,110354
379,500,7,117467,110358
382,500,7,117467,110358
385,501,7,117476,110362
388,501,7,117476,110359
390,501,7,117486,110359
393,501,8,117492,110371
395,501,7,117492,110373
397,502,7,117503,110376
400,502,8,117515,110376
402,502,7,117519,110376
405,503,7,117519,110388
407,503,7,117527,110398
410,503,7,117544,110398
412,504,7,117550,110386
414,504,7,117553,110392
417,505,7,117553,110399
419,505,7,117566,110404
422,505,7,117575,110404
424,504,7,117585,110402
428,503,7,117585,110402
430,503,7,117587,110411
433,504,7,117594,110411
435,504,7,117610,110409
437,504,7,117597,110414
440,505,7,117597,110418
442,505,7,117603,110416
445,505,8,117593,110416
447,505,7,117580,110414
450,505,7,117580,110405
452,505,7,117580,110392
454,506,7,117564,110392
457,506,7,117550,110397
459,506,7,117529,110390
462,506,7,117513,110365
464,507,7,117486,110365
467,507,7,117406,110346
470,507,7,117361,110341
473,508,7,117361,110309
475,508,7,117314,110283
477,508,7,117259,110283
480,508,7,117208,110267
482,507,7,117144,110244
485,507,7,117093,110232
487,507,7,117042,110207
490,507,7,116942,110188
492,507,7,116884,110168
494,507,7,116884,110130
497,507,7,116844,110130
499,506,7,116781,110112
502,506,7,116745,110098
504,506,7,116702,110083
507,506,7,116657,110067
509,506,7,116611,110049
513,506,7,116568,110039
515,506,7,116529,110028
517,506,7,116498,110018
520,506,7,116473,110006
522,506,7,116449,109989
525,506,7,116421,109981
527,506,7,116396,109975
530,506,7,116385,109968
532,506,7,116353,109951
534,506,7,116335,109944
537,506,7,116322,109935
539,507,7,116309,109933
542,507,7,116292,109924
544,507,7,116284,109923
547,507,7,116283,109927
549,507,7,116287,109917
552,508,7,116283,109918
555,509,7,116277,109919
557,509,7,116277,109920
560,509,7,116277,109922
562,509,7,116274,109924
565,508,7,116277,109916
567,508,7,116275,109919
570,508,7,116276,109914
572,508,7,116277,109925
574,508,7,116283,109923
577,510,7,116294,109921
579,510,7,116295,109928
582,511,7,116297,109919
584,511,7,116296,109930
587,511,7,116295,109928
589,510,7,116307,109929
592,509,7,116301,109927
594,509,7,116312,109929
596,509,7,116313,109926
600,509,7,116320,109923
602,508,7,116318,109928
605,508,7,116310,109924
607,507,7,116314,109927
610,506,7,116309,109928
612,506,7,116306,109921
614,505,7,116311,109915
617,505,7,116300,109917
619,505,7,116293,109919
622,504,7,116288,109913
624,504,7,116293,109910
627,504,7,116290,109907
629,503,7,116276,109899
632,504,7,116277,109902
634,504,7,116262,109900
636,504,7,116258,109898
640,503,7,116234,109885
642,503,7,116226,109887
645,503,7,116224,109886
647,503,7,116219,109880
650,504,7,116203,109867
652,504,7,116191,109874
654,504,7,116179,109864
657,505,7,116166,109858
659,505,7,116165,109854
662,505,7,116148,109852
664,505,7,116144,109851
667,505,7,116131,109843
669,505,7,116116,109839
672,505,7,116108,109835
674,504,7,116102,109830
676,505,7,116089,109829
679,505,7,116084,109833
681,506,7,116079,109824
685,506,7,116066,109821
687,506,7,116062,109801
690,506,7,116045,109811
692,506,7,116042,109808
694,506,7,116040,109817
697,505,7,116041,109808
699,505,7,116032,109806
702,505,8,116029,109799
704,506,7,116035,109801
707,505,7,116035,109805
709,505,7,116023,109795
712,505,7,116017,109795
714,504,7,116027,109794
716,504,7,116026,109791
719,504,7,116026,109788
721,504,7,116028,109792
724,504,7,116032,109790
727,503,7,116041,109793
730,503,7,116041,109798
732,503,7,116041,109789
734,504,7,116051,109789
737,504,7,116062,109803
739,504,8,116072,109804
742,503,7,116062,109814
744,503,7,116062,109815
747,503,7,116087,109816
749,503,7,116095,109818
752,503,7,116095,109815
754,502,7,116113,109824
756,503,7,116121,109824
759,502,7,116132,109834
761,502,7,116132,109823
764,502,7,116130,109830
766,502,7,116137,109830
770,502,8,116142,109830
772,501,7,116146,109830
774,501,7,116146,109839
777,500,8,116158,109837
779,501,7,116148,109837
782,501,7,116157,109837
784,500,7,116157,109834
787,500,7,116161,109837
789,500,7,116158,109837
792,500,8,116159,109842
794,500,7,116153,109830
796,500,7,116153,109834
799,501,7,116148,109832
801,501,7,116151,109832
804,501,7,116157,109822
806,501,7,116144,109831
809,501,7,116147,109828
812,501,7,116147,109826
814,501,7,116147,109828
817,502,7,116139,109817
819,502,7,116134,109817
822,502,7,116138,109813
824,501,7,116138,109812
827,501,7,116137,109822
829,501,7,116135,109822
832,502,7,116126,109828
834,502,7,116126,109822
836,502,7,116139,109819
839,502,7,116132,109820
841,502,7,116132,109825
844,502,7,116141,109812
846,502,7,116137,109812
849,501,7,116137,109809
851,502,7,116140,109809
854,502,7,116140,109819
857,502,7,116140,109821
859,502,7,116146,109821
862,502,7,116160,109821
864,503,7,116165,109827
867,503,7,116155,109824
869,502,7,116155,109823
872,502,7,116160,109821
874,502,7,116165,109821
876,502,7,116172,109826
879,502,7,116172,109831
881,502,7,116169,109831
884,502,7,116175,109831
886,501,8,116187,109828
889,501,7,116187,109841
891,501,7,116183,109841
893,501,7,116183,109837
897,501,7,116196,109843
899,502,7,116191,109843
902,502,7,116210,109839
904,501,7,116208,109835
907,501,7,116208,109844
909,500,7,116212,109847
912,500,7,116209,109847
914,500,7,116209,109853
916,500,7,116222,109853
919,500,7,116233,109853
921,500,7,116233,109859
924,500,7,116234,109858
926,499,7,116236,109863
929,499,7,116240,109863
931,499,7,116248,109860
933,498,7,116248,109859
936,498,7,116252,109859
939,498,8,116252,109867
942,497,7,116270,109867
944,497,7,116263,109869
947,498,7,116266,109869
949,498,7,116276,109870
952,498,8,116276,109870
954,497,7,116285,109877
956,497,7,116292,109884
959,497,7,116300,109881
961,497,7,116300,109885
964,496,7,116300,109884
966,496,7,116299,109884
969,496,7,116317,109889
971,496,7,116314,109899
973,496,8,116316,109888
976,496,7,116328,109892
978,496,7,116327,109895
982,496,7,116340,109904
984,496,7,116340,109900
987,496,7,116340,109900
989,496,7,116340,109904
992,496,7,116358,109904
994,496,7,116354,109910
996,496,7,116360,109910
999,496,7,116358,109916
1001,496,7,116363,109916
1004,496,7,116367,109915
1006,495,7,116371,109911
1009,495,7,116377,109915
1011,495,7,116389,109923
1013,495,7,116391,109916
1016,495,7,116382,109923
1018,495,7,116390,109920
1021,495,7,116397,109921
1024,496,7,116403,109921
1027,495,7,116403,109926
1029,495,7,116405,109923
1032,495,7,116407,109932
1034,495,7,116406,109931
1036,495,7,116409,109935
1039,496,7,116423,109933
1041,496,7,116428,109936
1044,496,7,116425,109947
1046,496,7,116426,109935
1049,496,7,116438,109939
1051,495,7,116432,109942
1053,495,7,116433,109944
1056,495,7,116442,109948
1058,494,7,116444,109951
1061,494,7,116461,109948
1063,493,7,116465,109953
1067,493,7,116464,109955
1069,493,7,116467,109956
1072,493,7,116476,109955
1074,494,7,116466,109964
1076,494,7,116475,109966
1079,495,7,116483,109961
1081,495,7,116485,109968
1084,495,7,116484,109974
1086,495,7,116494,109972
1089,495,7,116501,109973
1091,495,7,116506,109975
1093,495,7,116505,109979
1096,495,7,116509,109974
1098,494,7,116527,109982
1101,494,7,116522,109981
1103,494,7,116524,109990
1106,494,7,116531,109986
1108,494,7,116537,109988
1112,494,7,116547,109977
1114,494,7,116538,109992
1116,494,7,116545,109996
1119,494,7,116551,109997
1121,494,7,116557,109998
1124,494,7,116552,109997
1126,494,7,116558,109998
1129,494,7,116564,109996
1131,494,7,116557,110008
1133,495,7,116570,109997
1136,494,7,116570,110005
1138,495,7,116582,110007
1141,496,7,116578,110004
1143,496,7,116594,110014
1146,497,7,116584,110014
1148,498,7,116596,110010
1152,498,7,116602,110014
1154,498,7,116605,110016
1156,497,7,116604,110019
1159,496,7,116606,110019
1161,495,7,116605,110018
1164,492,7,116616,110022
1166,492,7,116635,110027
1169,492,7,116633,110032
1171,492,7,116637,110038
1173,492,7,116640,110034
1176,493,7,116641,110032
1178,493,7,116642,110025
1181,493,7,116648,110036
1183,493,7,116654,110034
1186,493,7,116662,110032
1188,493,7,116673,110042
1191,492,7,116673,110033
1193,492,7,116666,110039
1196,492,7,116674,110039
1199,492,7,116678,110046
1201,492,7,116685,110047
1204,492,7,116685,110051
1206,492,7,116693,110050
1209,492,7,116702,110050
1211,492,7,116709,110065
1213,492,7,116707,110052
1216,492,7,116717,110058
1218,492,7,116717,110060
1221,493,7,116714,110063
1223,494,7,116727,110066
1226,495,7,116727,110068
1228,497,7,116737,110073
1231,498,7,116742,110073
1233,501,7,116758,110078
1235,502,7,116751,110079
1239,503,7,116755,110079
1241,502,7,116755,110081
1244,500,7,116771,110082
1246,496,7,116784,110088
1249,493,7,116784,110087
1251,492,7,116784,110094
1253,491,7,116792,110094
1256,490,7,116799,110101
1258,489,7,116799,110093
1261,489,7,116810,110103
1263,489,7,116806,110103
1266,490,7,116832,110100
1268,490,7,116830,110107
1271,490,7,116827,110109
1273,492,7,116831,110106
1275,493,7,116838,110106
1278,495,7,116843,110114
1281,495,7,116843,110111
1284,495,7,116852,110121
1286,495,7,116853,110121
1289,494,7,116868,110118
1291,494,7,116868,110117
1293,493,7,116866,110122
1296,494,7,116871,110122
1298,494,8,116888,110119
1301,494,7,116882,110120
1303,494,7,116882,110131
1306,494,7,116890,110125
1308,495,7,116899,110125
1311,494,7,116897,110132
1313,493,7,116897,110128
1315,491,7,116902,110126
1318,490,7,116906,110126
1320,486,7,116916,110136
1324,480,7,116924,110139
1326,461,7,116924,110131
1329,447,7,116926,110136
1331,436,7,116929,110136
1333,423,7,116948,110139
1336,400,7,116945,110135
1338,394,7,116949,110135
1341,392,7,116949,110145
1343,403,7,116944,110149
1346,417,7,116966,110149
1348,460,7,116966,110150
1351,507,7,116981,110147
1353,545,7,116977,110147
1355,584,7,116993,110152
1358,651,7,116993,110155
1360,671,7,116997,110157
1363,676,7,116998,110157
1366,673,7,117016,110158
1369,649,7,117016,110168
1371,638,7,117020,110168
1373,625,7,117030,110178
1376,602,7,117030,110177
1378,581,8,117044,110180
1381,564,8,117047,110180
1383,542,7,117054,110180
1675,499,7,116246,109904
1678,498,7,116251,109911
1680,498,7,116242,109907
1683,499,7,116241,109909
1685,498,7,116246,109906
1688,498,7,116246,109900
1690,498,7,116236,109904
1692,498,7,116238,109904
1695,497,7,116238,109897
1697,497,7,116233,109895
1700,496,7,116220,109889
1702,496,7,116220,109886
1705,496,7,116204,109884
1708,496,7,116209,109876
1711,495,7,116209,109875
1713,496,7,116181,109868
1715,496,7,116164,109868
1718,496,7,116173,109870
1720,496,7,116173,109865
1723,497,7,116157,109857
1725,498,7,116142,109857
1728,498,7,116136,109855
1730,499,7,116120,109843
1732,498,7,116120,109844
1735,498,7,116091,109838
1737,498,7,116089,109838
1740,498,7,116089,109840
1742,498,7,116089,109820
1745,499,7,116072,109825
1747,499,7,116045,109825
1751,500,7,116049,109821
1753,500,7,116033,109812
1755,500,7,116033,109806
1758,501,7,116008,109802
1760,501,7,116005,109802
1763,501,7,115995,109809
1765,502,7,115991,109800
1768,502,7,115981,109790
1770,502,7,115981,109788
1772,502,7,115981,109794
1775,502,7,115968,109786
1777,503,7,115969,109786
1780,503,7,115973,109785
1782,503,7,115973,109784
1785,503,7,115962,109784
1787,502,7,115962,109789
1790,502,7,115966,109792
1793,502,7,115970,109792
1795,501,7,115976,109789
1798,501,7,115976,109787
1800,501,7,115985,109787
1803,501,7,115985,109796
1805,501,7,115983,109798
1808,501,7,115993,109798
1810,501,7,115993,109804
1812,501,7,116008,109804
1815,502,7,116019,109804
1817,501,7,116002,109803
1820,501,7,116040,109820
1822,501,7,116044,109820
1825,500,7,116044,109814
1827,500,7,116055,109828
1830,500,7,116070,109828
1832,499,7,116070,109834
1835,499,8,116081,109843
1838,500,7,116098,109843
1840,499,7,116104,109834
1843,499,7,116104,109833
1845,499,8,116115,109833
1848,499,7,116115,109846
1850,499,7,116090,109846
1852,499,8,116119,109846
1855,499,7,116119,109839
1857,499,7,116130,109838
1860,499,7,116125,109838
1862,499,7,116119,109842
1865,501,7,116119,109838
1867,501,7,116135,109843
1870,502,7,116121,109843
1872,501,7,116124,109847
1874,500,7,116131,109845
1878,498,7,116131,109843
1880,498,7,116126,109838
1883,499,7,116121,109838
1885,498,8,116113,109842
1888,498,7,116113,109843
1890,498,7,116120,109834
1892,498,7,116115,109834
1895,498,7,116108,109839
1897,498,7,116112,109838
1900,498,7,116110,109830
1902,499,7,116118,109839
1905,499,8,116107,109833
1907,499,8,116114,109845
1910,500,7,116114,109842
1912,500,7,116116,109837
1914,499,8,116117,109837
1917,499,7,116117,109843
1920,499,7,116124,109837
1923,499,7,116117,109841
1925,500,7,116128,109841
1928,500,7,116129,109839
1930,500,7,116127,109845
1932,501,7,116127,109848
1935,500,7,116139,109848
1937,500,7,116136,109845
1940,500,7,116141,109843
1942,499,7,116152,109846
1945,498,7,116148,109844
1947,498,7,116144,109840
1950,498,7,116149,109848
1952,498,7,116149,109849
1954,499,7,116142,109852
1957,499,7,116153,109848
1959,500,7,116162,109848
1963,499,7,116164,109856
1965,498,7,116177,109850
1968,498,7,116177,109864
1970,497,7,116174,109849
1972,497,7,116177,109856
1975,497,7,116179,109857
1977,498,7,116184,109857
1980,498,7,116178,109860
1982,498,7,116177,109861
1985,498,7,116182,109859
1987,499,7,116196,109856
1990,498,7,116199,109862
1992,499,7,116210,109864
1994,499,7,116206,109859
1997,499,7,116209,109865
1999,499,7,116220,109868
2002,498,7,116228,109878
2004,498,7,116222,109871
2008,498,7,116233,109877
2010,499,7,116241,109882
2012,498,7,116234,109879
2015,498,7,116244,109882
2017,498,7,116250,109885
2020,497,7,116261,109883
2022,498,7,116271,109889
2025,499,7,116272,109895
2027,499,7,116278,109891
2030,499,7,116275,109896
2032,499,7,116282,109896
2034,499,7,116285,109890
2037,499,7,116294,109899
2039,499,7,116300,109900
2042,500,7,116298,109903
2044,499,7,116300,109902
2048,500,7,116311,109907
2050,499,7,116315,109902
2052,499,7,116320,109912
2055,499,7,116318,109913
2057,499,7,116328,109914
2060,501,7,116325,109912
2062,500,7,116334,109922
2065,500,7,116335,109912
2067,500,7,116341,109913
2070,500,7,116351,109907
2072,500,7,116353,109915
2074,499,7,116350,109927
2077,499,7,116355,109913
2079,499,7,116369,109924
2082,499,7,116360,109924
2084,499,7,116361,109927
2087,499,7,116364,109927
2089,499,7,116378,109936
2092,500,7,116385,109933
2095,500,7,116381,109939
2097,500,7,116383,109937
2100,500,7,116381,109940
2102,500,7,116396,109947
2105,500,7,116398,109943
2107,500,7,116414,109945
2110,500,7,116402,109950
2112,501,7,116411,109947
2114,501,7,116408,109955
2117,501,7,116419,109955
2119,501,7,116426,109953
2122,501,7,116426,109962
2124,500,7,116437,109964
2127,501,7,116442,109966
2129,500,7,116449,109961
2131,501,7,116453,109961
2135,501,7,116467,109973
2137,501,7,116462,109970
2140,501,7,116470,109971
2142,500,7,116474,109974
2145,501,7,116482,109975
2147,501,7,116488,109984
2150,501,7,116488,109973
2152,501,7,116490,109982
2154,501,7,116501,109982
2157,501,7,116505,109990
2159,501,7,116504,109988
2162,500,7,116504,109997
2164,500,7,116520,109990
2167,500,7,116519,109990
2169,500,7,116533,109993
2171,499,7,116535,109994
2174,500,7,116529,109991
2177,500,7,116529,109993
2180,500,7,116533,109996
2182,501,7,116543,109998
2185,501,7,116543,110006
2187,501,7,116551,110006
2190,502,7,116554,110006
2192,501,7,116571,110017
2194,500,7,116569,109999
2197,500,7,116567,110007
2199,500,7,116567,110009
2202,499,7,116577,110019
2204,500,8,116591,110015
2207,500,7,116591,110018
2209,500,7,116595,110014
2211,501,7,116606,110014
2214,501,7,116607,110019
2216,502,7,116607,110018
2220,503,7,116613,110024
2222,503,7,116614,110024
2225,503,7,116625,110028
2227,502,7,116628,110029
2230,501,7,116627,110029
2232,500,7,116632,110023
2234,499,7,116632,110033
2237,499,7,116642,110035
2239,499,7,116653,110035
2242,499,7,116656,110036
2244,500,7,116656,110044
2247,500,7,116661,110043
2249,501,7,116672,110043
2251,501,7,116682,110054
2254,501,7,116681,110042
2256,501,7,116681,110047
2259,500,7,116696,110053
2262,500,7,116698,110053
2265,500,7,116705,110051
2267,500,7,116705,110059
2270,500,7,116708,110060
2272,501,7,116719,110060
2274,501,7,116738,110061
2277,502,7,116728,110065
2279,503,8,116743,110065
2282,501,7,116743,110071
2284,500,7,116744,110069
2287,500,7,116756,110069
2289,499,7,116756,110072
2291,498,7,116763,110083
2294,498,7,116773,110083
2296,498,7,116790,110089
2299,498,7,116787,110087
2301,498,7,116796,110087
2305,499,7,116796,110094
2307,500,7,116804,110095
2310,500,7,116815,110095
2312,501,8,116815,110100
2314,501,7,116828,110106
2317,502,7,116826,110106
2319,503,7,116841,110107
2322,505,7,116841,110111
2324,505,7,116852,110111
2327,505,7,116852,110117
2329,505,7,116831,110119
2331,506,7,116870,110119
2334,506,7,116870,110128
2336,505,7,116886,110129
2339,505,7,116885,110129
2341,505,8,116895,110121
2344,504,7,116895,110137
2347,503,7,116893,110132
2350,503,7,116908,110132
2352,502,7,116921,110137
2354,502,7,116923,110146
2357,501,7,116923,110144
2359,501,7,116939,110153
2362,501,7,116934,110153
2364,501,7,116947,110156
2367,501,7,116947,110148
2369,503,7,116946,110164
2371,503,8,116955,110164
2374,503,7,116962,110159
2376,503,7,116972,110165
2379,503,7,116974,110165
2381,502,7,116990,110165
2384,502,8,116998,110166
2386,501,7,117007,110176
2390,502,7,117007,110181
2392,503,7,117006,110183
2394,504,7,117016,110183
2397,504,7,117022,110181
2399,504,7,117032,110183
2402,504,7,117034,110184
2404,503,7,117036,110180
2407,501,7,117063,110193
2409,500,7,117056,110194
2411,499,7,117056,110197
2414,496,7,117077,110197
2416,486,7,117076,110198
2419,475,7,117091,110209
2421,451,7,117097,110206
2424,437,7,117093,110212
2426,421,7,117093,110208
2429,408,7,117105,110209
2432,396,7,117108,110213
2434,393,7,117115,110215
2437,400,7,117118,110221
2439,431,7,117123,110221
2442,456,7,117130,110227
2444,496,7,117140,110224
2447,540,7,117149,110225
2449,628,7,117156,110227
2451,656,7,117159,110236
2454,679,7,117154,110228
2456,691,7,117169,110233
2459,693,7,117165,110231
2461,682,7,117174,110233
2464,664,7,117178,110233
2466,640,7,117176,110236
2469,627,7,117183,110243
2471,608,7,117188,110239
2473,588,7,117203,110240
2477,546,8,117209,110240
2479,526,7,117215,110245
2482,512,7,117215,110246
2484,500,8,117216,110247
2487,491,7,117227,110247
2489,479,7,117222,110250
2491,475,7,117223,110252
2494,471,8,117238,110254
2496,467,7,117238,110254
2499,467,7,117244,110254
2501,470,7,117249,110262
2504,472,7,117249,110263
2506,474,7,117249,110259
2509,476,7,117257,110263
2511,478,7,117264,110271
2513,479,7,117261,110273
2516,479,7,117283,110268
2519,479,7,117285,110269
2522,480,7,117277,110278
2524,481,7,117290,110282
2527,482,7,117296,110286
2529,483,7,117301,110294
2531,484,7,117316,110291
2534,485,7,117319,110294
2536,485,7,117319,110293
2539,487,7,117327,110302
2541,487,7,117327,110299
2544,488,7,117340,110304
2546,488,7,117347,110300
2549,489,7,117352,110308
2551,489,7,117355,110311
2553,490,7,117368,110319
2556,490,7,117371,110314
2558,490,7,117382,110321
2562,491,7,117378,110326
2564,491,7,117392,110328
2567,492,7,117396,110327
2569,493,7,117400,110336
2571,493,7,117415,110328
2574,494,7,117419,110338
2576,494,7,117420,110340
2579,495,7,117426,110347
2581,495,7,117445,110344
2584,496,7,117445,110350
2586,496,7,117450,110353
2589,496,7,117462,110353
2591,497,7,117461,110354
2593,497,7,117469,110353
2596,497,7,117476,110362
2598,497,7,117482,110358
2601,496,7,117489,110362
2604,496,7,117500,110367
2607,496,7,117505,110374
2609,497,7,117509,110377
2611,497,7,117505,110377
2614,498,7,117523,110381
2616,499,7,117510,110375
2619,500,7,117520,110371
2621,500,7,117516,110367
2624,501,7,117512,110377
2626,502,7,117509,110372
2629,502,7,117509,110362
2631,503,7,117478,110355
2633,503,7,117447,110355
2636,503,7,117422,110333
2638,502,7,117384,110314
2641,502,7,117384,110305
2643,502,7,117300,110292
2647,502,7,117247,110292
2649,503,7,117205,110257
2651,503,7,117150,110236
2654,504,7,117087,110214
2656,504,7,117087,110197
2659,503,7,116972,110176
2661,504,7,116925,110153
2664,504,7,116925,110137
2666,504,7,116815,110120
2669,505,7,116763,110120
2671,506,7,116717,110087
2673,506,7,116717,110062
2676,506,7,116619,110047
2678,506,7,116576,110047
2681,506,7,116542,110036
2683,505,7,116503,110008
2686,505,7,116469,110010
2689,505,7,116446,109990
2691,505,7,116446,109975
2694,505,7,116386,109973
2696,505,7,116358,109973
2699,506,7,116342,109954
2701,506,7,116342,109949
2704,506,7,116327,109945
2706,507,7,116296,109945
2709,507,7,116295,109934
2711,507,7,116283,109930
2713,507,7,116283,109929
2716,507,7,116265,109930
2718,508,7,116265,109930
2721,508,7,116264,109928
2723,509,7,116264,109922
2726,510,7,116258,109928
2728,511,7,116271,109928
2731,511,8,116272,109929
2734,511,7,116269,109926
2736,511,7,116269,109925
2739,511,7,116283,109929
2741,511,8,116275,109929
2744,510,7,116287,109932
2746,511,7,116287,109933
2749,511,7,116291,109939
2751,512,7,116307,109939
2753,512,7,116322,109943
2756,513,7,116320,109944
2758,513,7,116324,109944
2761,513,7,116324,109946
2763,513,7,116331,109950
2766,514,7,116333,109950
2768,513,7,116333,109952
2770,513,7,116344,109950
2774,513,7,116346,109950
2776,513,7,116335,109954
2779,513,7,116361,109962
2781,513,7,116366,109962
2784,512,7,116366,109954
2786,511,7,116357,109959
2789,511,7,116358,109959
2791,510,7,116358,109947
2793,509,7,116360,109945
2796,509,8,116346,109945
2798,508,7,116345,109942
2801,507,8,116345,109944
2803,507,7,116332,109944
2806,507,7,116332,109933
2808,508,7,116296,109936
2810,508,7,116307,109936
2813,508,7,116307,109925
2816,508,7,116306,109924
2819,509,7,116282,109924
2821,509,7,116274,109922
2824,509,7,116274,109909
2826,509,7,116263,109904
2829,510,7,116252,109904
2831,510,7,116244,109910
2833,511,7,116231,109902
2836,511,7,116231,109894
2838,512,7,116215,109886
2841,512,7,116188,109886
2843,512,7,116187,109879
2846,511,7,116187,109876
2848,511,7,116174,109872
2850,512,7,116169,109872
2853,512,7,116153,109866
2855,513,7,116147,109865
2859,513,8,116148,109862
2861,513,7,116144,109859
2864,513,8,116118,109857
2866,513,7,116126,109854
2869,513,7,116126,109847
2871,513,7,116122,109852
2873,513,7,116116,109852
2876,514,7,116112,109847
2878,514,7,116107,109841
2881,514,7,116099,109842
2883,514,7,116109,109845
2886,514,7,116118,109843
2888,514,7,116126,109852
2890,514,8,116126,109854
2893,514,7,116131,109854
2895,514,7,116129,109853
2898,514,7,116139,109849
2900,514,7,116142,109856
2904,513,7,116149,109860
2906,514,7,116141,109853
2909,514,7,116152,109863
2911,514,7,116165,109863
2913,514,7,116174,109866
2916,514,7,116182,109868
2918,515,7,116195,109876
2921,515,7,116203,109874
2923,515,7,116214,109877
2926,515,7,116227,109885
2928,514,7,116242,109884
2930,514,7,116248,109890
2933,513,7,116250,109891
2935,513,7,116263,109904
2938,512,7,116265,109893
2940,512,7,116273,109904
2944,513,7,116279,109899
2946,513,7,116279,109906
2949,513,7,116280,109907
2951,513,7,116284,109902
2953,513,7,116288,109906
2956,514,7,116294,109908
2958,514,7,116296,109902
2961,514,7,116295,109908
2963,515,7,116293,109909
2966,515,7,116291,109909
2968,515,7,116282,109907
2970,515,8,116282,109907
2973,515,7,116283,109900
2975,515,7,116284,109897
2978,515,7,116288,109894
2980,515,7,116284,109898
2983,516,7,116277,109900
2985,516,7,116274,109898
2989,516,7,116278,109894
2991,517,7,116266,109897
2993,517,7,116271,109897
2996,517,7,116280,109894
2998,517,7,116278,109893
3001,518,7,116268,109896
3003,518,7,116268,109888
3006,518,7,116270,109887
3008,517,7,116273,109894
3010,517,7,116271,109895
3013,517,7,116275,109893
3015,517,7,116275,109896
3018,518,7,116269,109900
3020,518,7,116274,109906
3023,518,7,116274,109898
3025,518,7,116290,109895
3028,519,7,116274,109896
3031,519,7,116281,109904
3033,519,7,116290,109901
3036,519,7,116288,109900
3038,519,7,116295,109903
3041,520,7,116289,109900
3043,520,7,116289,109902
3046,520,7,116297,109906
3048,519,7,116302,109915
3050,520,7,116312,109907
3053,519,8,116308,109908
3055,520,7,116313,109916
3058,521,7,116312,109910
3060,522,7,116333,109909
3063,522,7,116316,109916
3065,522,7,116324,109920
3068,522,7,116324,109918
3070,522,7,116333,109922
3073,522,7,116335,109922
3076,522,7,116340,109928
3078,522,7,116342,109928
3081,522,7,116342,109928
3083,522,7,116352,109929
3086,522,8,116367,109938
3088,522,7,116372,109935
3090,522,7,116369,109935
3093,522,7,116381,109937
3095,522,7,116377,109930
3098,522,7,116381,109937
3100,523,7,116381,109938
3103,524,7,116391,109937
3105,524,7,116403,109938
3108,524,7,116403,109945
3110,524,7,116408,109951
3112,524,7,116406,109951
3116,525,7,116421,109948
3118,525,7,116422,109944
3121,525,7,116422,109948
3123,525,8,116422,109955
3126,525,7,116434,109955
3128,524,8,116441,109960
3130,524,7,116435,109958
3133,524,7,116439,109961
3135,524,7,116439,109956
3138,525,7,116438,109956
3140,526,7,116453,109958
3143,526,8,116453,109952
3145,527,7,116452,109953
3148,527,7,116457,109953
3150,526,7,116467,109973
3152,526,7,116466,109972
3155,525,7,116475,109965
3158,525,7,116475,109973
3161,525,7,116482,109973
3163,525,7,116484,109971
3166,525,7,116484,109974
3168,525,7,116487,109976
3170,526,7,116486,109976
3173,527,7,116495,109981
3175,527,7,116495,109981
3178,527,7,116495,109982
3180,527,7,116499,109982
3183,527,7,116515,109985
3185,527,8,116511,109981
3188,527,8,116512,109991
3190,528,7,116522,109993
3192,528,8,116516,109993
3195,529,8,116537,109984
3197,529,8,116537,109996
3201,529,8,116537,110002
3203,529,7,116535,110002
3206,528,8,116541,110002
3208,527,7,116541,109997
3210,527,7,116544,110002
3213,527,7,116548,110002
3215,527,8,116555,110000
3218,527,7,116556,110012
3220,527,7,116556,110012
3223,527,7,116570,110013
3225,528,8,116570,110013
3228,528,7,116574,110025
3230,528,8,116574,110008
3232,529,8,116577,110016
3235,529,7,116587,110016
3237,529,7,116593,110017
3240,529,7,116597,110020
3243,529,7,116597,110022
3246,530,7,116598,110017
3248,530,8,116604,110017
3250,530,7,116613,110028
3253,531,8,116613,110027
3255,531,7,116612,110026
3258,530,7,116618,110026
3260,530,7,116621,110026
3263,530,7,116621,110032
3265,529,8,116627,110032
3268,529,7,116635,110037
3270,530,7,116635,110032
3272,530,7,116635,110030
3275,531,7,116645,110030
3277,530,7,116649,110042
3280,530,7,116649,110044
3282,531,7,116657,110048
3286,531,8,116659,110048
3288,531,8,116669,110047
3290,531,7,116672,110053
3293,530,7,116672,110059
3295,530,7,116672,110062
3298,530,7,116680,110062
3300,530,7,116687,110065
3303,530,7,116687,110060
3305,531,7,116695,110067
3308,531,7,116694,110067
3310,531,7,116707,110064
3312,531,7,116712,110072
3315,531,7,116712,110073
3317,530,7,116715,110075
3320,530,8,116715,110075
3322,530,7,116729,110079
3325,530,7,116729,110079
3328,530,7,116731,110080
3330,530,8,116731,110080
3333,530,7,116738,110082
3335,530,7,116738,110089
3338,530,7,116738,110082
3340,529,7,116758,110082
3343,529,8,116758,110086
3345,528,7,116762,110101
3348,528,8,116762,110094
3350,529,7,116774,110102
3352,529,8,116782,110102
3355,528,7,116780,110105
3357,528,7,116793,110099
3360,528,8,116789,110106
3362,529,7,116796,110106
3365,529,7,116809,110111
3367,531,7,116804,110121
3369,532,7,116804,110123
3373,533,7,116820,110123
3375,536,8,116819,110119
3378,536,8,116831,110120
3380,536,7,116834,110117
3383,536,7,116844,110123
3385,535,7,116833,110120
3388,535,7,116843,110126
3390,534,7,116856,110129
3392,534,7,116852,110129
3395,533,7,116863,110135
3397,532,8,116855,110134
3400,532,7,116870,110133
3402,531,7,116872,110133
3405,530,7,116875,110134
3407,528,7,116888,110141
3409,528,7,116891,110144
3412,528,7,116883,110140
3415,528,7,116900,110144
3418,528,7,116904,110143
3420,529,7,116910,110145
3423,530,7,116913,110151
3425,532,7,116916,110150
3428,532,7,116923,110154
3430,532,7,116928,110161
3432,532,7,116934,110162
3435,531,7,116948,110159
3437,531,8,116945,110167
3440,531,8,116948,110174
3442,531,7,116954,110170
3445,531,7,116961,110169
3447,530,7,116959,110179
3449,530,7,116972,110181
3452,530,7,116975,110177
3454,530,7,116975,110184
3458,530,7,116992,110190
3460,528,7,116988,110185
3463,527,7,117001,110185
3465,525,8,116996,110197
3468,519,7,117008,110196
3470,500,7,117001,110198
3472,489,7,117007,110197
3475,478,7,117022,110191
3477,461,7,117030,110203
3480,435,7,117019,110202
3482,425,8,117030,110209
3485,417,7,117036,110204
3487,424,7,117042,110201
3489,437,7,117045,110210
3492,460,7,117049,110205
3494,488,7,117050,110212
3497,572,7,117050,110210
3500,619,7,117059,110223
3503,656,7,117070,110209
3505,687,7,117076,110218
3508,710,8,117076,110222
3510,716,8,117078,110225
3512,706,8,117085,110233
3515,693,8,117081,110226
3517,680,8,117093,110233
3520,668,8,117091,110226
3522,640,8,117099,110228
3525,625,8,117100,110230
3527,590,8,117106,110237
3529,565,8,117111,110232
3532,547,8,117122,110235
3534,530,8,117116,110236
3537,512,8,117119,110210
3539,505,8,117126,110238
3543,500,8,117121,110248
3545,496,7,117136,110250
3548,491,8,117133,110253
3550,490,8,117138,110258
3552,493,8,117148,110257
3555,495,8,117148,110252
3557,498,8,117158,110254
3560,501,8,117157,110261
3562,502,8,117165,110261
3565,502,7,117168,110264
3567,502,8,117181,110267
3569,502,8,117182,110267
3572,503,7,117178,110274
3574,504,7,117192,110271
3577,504,7,117193,110268
3579,504,7,117196,110283
3582,505,8,117206,110276
3585,505,7,117216,110285
3588,506,7,117216,110281
3590,506,8,117218,110283
3592,507,7,117222,110283
3595,508,7,117237,110291
3597,508,7,117239,110297
3600,508,7,117239,110293
3602,507,7,117248,110300
3605,508,7,117253,110300
3607,508,7,117260,110306
3609,508,7,117266,110303
3612,509,7,117270,110306
3614,510,8,117270,110311
3617,510,7,117277,110303
3619,511,8,117283,110305
3622,511,7,117283,110304
3624,511,7,117292,110309
3628,511,8,117302,110309
3630,511,8,117313,110322
3632,511,7,117320,110319
3635,512,7,117328,110320
3637,512,8,117328,110334
3640,512,7,117331,110328
3642,512,8,117348,110332
3645,512,7,117348,110337
3647,513,7,117355,110340
3649,513,8,117366,110340
3652,513,7,117375,110347
3654,513,7,117375,110344
3657,513,7,117375,110349
3659,514,7,117369,110349
3662,514,8,117388,110342
3664,514,8,117389,110351
3667,514,8,117382,110357
3670,513,7,117385,110351
3672,513,8,117376,110351
3675,513,7,117381,110351
3677,513,7,117381,110352
3680,513,7,117362,110347
3682,514,7,117335,110347
3685,514,8,117323,110340
3687,514,8,117323,110319
3689,514,7,117286,110307
3692,513,7,117214,110307
3694,514,8,117180,110293
3697,514,8,117129,110261
3699,514,7,117129,110240
3702,514,7,117079,110228
3704,514,7,116973,110228
3707,514,7,116930,110211
3709,514,8,116930,110158
3712,514,7,116878,110145
3715,514,8,116762,110145
3717,514,7,116718,110130
3720,514,7,116681,110117
3722,514,7,116681,110081
3725,514,7,116583,110063
3727,514,8,116546,110063
3729,514,8,116510,110053
3732,514,7,116475,110023
3734,513,7,116434,110023
3737,513,7,116434,110002
3739,513,7,116407,109991
3742,513,7,116347,109991
3744,512,7,116347,109967
3747,512,7,116326,109958
3749,513,8,116275,109958
3751,513,7,116260,109954
3755,514,7,116260,109934
3757,514,7,116242,109927
3760,514,7,116214,109927
3762,514,7,116210,109923
3765,513,7,116210,109914
3767,513,7,116180,109914
3769,513,8,116186,109914
3772,513,7,116186,109907
3774,514,7,116182,109911
3777,514,8,116170,109911
3779,514,7,116165,109896
3782,514,7,116165,109907
3784,515,7,116171,109898
3787,515,8,116167,109898
3789,515,8,116177,109893
3791,515,8,116169,109906
3794,515,7,116169,109897
3796,515,7,116179,109902
3800,515,7,116177,109902
3802,515,7,116184,109906
3805,515,7,116184,109902
3807,514,8,116184,109914
3809,514,7,116197,109914
3812,514,8,116198,109905
3814,514,7,116199,109911
3817,515,7,116199,109911
3819,516,7,116205,109912
3822,517,7,116189,109907
3824,516,7,116196,109911
3827,516,7,116196,109900
3829,514,7,116196,109902
3831,513,7,116191,109902
3834,513,7,116196,109904
3836,512,7,116191,109903
3840,512,7,116185,109902
3842,511,7,116184,109900
3845,511,7,116173,109902
3847,511,7,116166,109904
3849,511,7,116166,109889
3852,511,7,116163,109889
3854,510,7,116150,109881
3857,509,7,116144,109882
3859,508,7,116129,109871
3862,507,7,116121,109871
3864,507,7,116114,109866
3867,507,7,116099,109859
3869,507,7,116092,109849
3871,507,7,116084,109852
3874,508,7,116070,109844
3876,509,7,116053,109847
3879,509,7,116045,109846
3881,510,7,116032,109827
3885,509,7,116016,109830
3887,509,7,116009,109824
3889,508,7,116000,109819
3892,508,7,115983,109805
3894,508,7,115981,109805
3897,508,7,115972,109807
3899,508,7,115969,109803
3902,508,7,115954,109803
3904,509,7,115941,109800
3907,509,7,115930,109795
3909,510,7,115928,109793
3911,510,7,115915,109789
3914,510,7,115912,109788
3916,510,7,115903,109779
3919,509,7,115897,109789
3921,509,7,115894,109774
3924,509,7,115898,109775
3927,508,7,115886,109772
3929,507,7,115886,109772
3932,507,7,115882,109769
3934,507,7,115886,109763
3937,507,7,115886,109765
3939,507,7,115885,109769
3942,507,7,115888,109776
3944,508,7,115883,109770
3947,508,8,115894,109773
3949,508,7,115889,109775
3951,507,7,115888,109779
3954,507,7,115903,109777
3956,506,7,115913,109776
3959,506,7,115908,109783
3961,506,7,115916,109780
3964,507,7,115928,109781
3966,506,7,115931,109786
3969,506,7,115939,109793
3972,506,7,115938,109787
3974,505,7,115944,109792
3977,503,7,115955,109792
3979,503,7,115955,109806
3982,503,7,115967,109798
3984,503,7,115973,109797
3987,503,7,115980,109797
3989,504,7,115981,109802
3991,504,7,115988,109807
3994,504,7,115988,109800
3996,504,7,115993,109803
3999,504,7,115989,109804
4001,504,7,115988,109807
4004,504,7,115997,109810
4006,503,7,115998,109810
4008,503,7,116004,109803
4012,502,7,116002,109808
4014,502,7,115995,109809
4017,502,7,115996,109809
4019,502,7,116009,109807
4022,503,7,116000,109802
4024,503,7,115999,109811
4027,503,7,115992,109804
4029,503,7,115990,109808
4031,502,7,115993,109812
4034,502,7,115998,109812
4036,502,7,115991,109807
4039,503,7,115985,109812
4041,503,7,115997,109806
4044,503,7,115993,109811
4046,504,7,115994,109805
4048,503,7,115994,109811
4051,503,7,115987,109802
4054,503,7,115986,109797
4057,502,7,115986,109799
4059,501,7,115983,109805
4062,501,7,115985,109803
4064,500,7,115986,109802
4067,501,7,115978,109796
4069,500,7,115989,109797
4071,500,7,115984,109800
4074,500,7,115984,109802
4076,501,7,115988,109801
4079,501,7,115988,109802
4081,501,7,115989,109799
4084,501,7,115995,109799
4086,501,7,115993,109798
4088,501,7,115993,109797
4091,501,7,115995,109802
4093,501,7,115995,109804
4097,500,7,115994,109800
4099,500,7,115993,109807
4102,500,7,115993,109799
4104,501,7,116001,109802
4107,502,7,116002,109802
4109,502,7,116013,109805
4111,501,7,116017,109805
4114,501,7,116019,109805
4116,501,7,116019,109809
4119,500,7,116024,109817
4121,501,7,116031,109824
4124,501,7,116031,109822
4126,501,7,116049,109818
4128,502,7,116046,109818
4131,501,7,116057,109824
4133,501,7,116057,109825
4136,500,7,116046,109827
4139,500,7,116063,109827
4142,500,8,116064,109823
4144,501,7,116078,109830
4147,501,7,116071,109835
4149,502,7,116076,109830
4151,502,8,116081,109830
4154,501,7,116093,109837
4156,501,7,116093,109845
4159,500,7,116096,109843
4161,500,7,116103,109843
4164,500,7,116114,109842
4166,500,7,116114,109845
4168,500,7,116114,109855
4171,500,7,116120,109855
4173,501,7,116126,109857
4176,500,7,116132,109864
4178,500,7,116132,109858
4182,500,7,116137,109858
4184,500,7,116145,109858
4187,500,7,116149,109857
4189,500,7,116149,109864
4191,500,7,116152,109867
4194,500,7,116160,109867
4196,500,7,116169,109869
4199,500,7,116163,109877
4201,501,7,116163,109873
4204,501,7,116176,109874
4206,501,7,116175,109874
4208,501,7,116198,109876
4211,501,7,116187,109877
4213,501,7,116195,109877
4216,500,7,116195,109881
4218,499,7,116194,109878
4221,499,7,116208,109878
4224,500,7,116208,109884
4227,500,7,116211,109889
4229,500,7,116215,109889
4231,500,7,116192,109894
4234,500,7,116223,109898
4236,500,7,116230,109898
4239,500,7,116230,109902
4241,499,7,116233,109896
4244,499,7,116235,109896
4246,498,7,116235,109905
4248,497,7,116248,109907
4251,498,8,116257,109907
4253,498,7,116257,109903
4256,498,7,116256,109912
4258,499,7,116258,109913
4261,499,7,116262,109913
4263,499,7,116272,109915
4267,500,7,116272,109919
4269,500,7,116271,109919
4271,500,7,116271,109918
4274,500,7,116271,109913
4276,500,7,116272,109922
4279,500,7,116282,109922
4281,500,7,116290,109921
4284,500,7,116290,109926
4286,500,7,116294,109931
4288,500,7,116285,109931
4291,499,7,116303,109924
4293,499,7,116303,109935
4296,499,7,116303,109924
4298,499,7,116311,109924
4301,499,8,116306,109933
4303,499,7,116314,109933
4306,500,7,116314,109934
4308,500,7,116323,109942
4311,500,8,116324,109942
4314,499,7,116324,109938
4316,499,7,116327,109935
4319,499,7,116339,109941
4321,501,7,116341,109942
4324,501,7,116353,109943
4326,501,7,116348,109948
4328,501,7,116348,109955
4331,501,7,116356,109955
4333,500,7,116358,109947
4336,500,7,116360,109953
4338,501,7,116378,109955
4341,501,7,116382,109958
4343,501,7,116374,109951
4346,501,7,116379,109965
4348,500,7,116381,109961
4350,499,7,116390,109967
4354,499,7,116391,109971
4356,499,7,116398,109962
4359,499,7,116411,109976
4361,499,7,116417,109978
4364,499,7,116420,109973
4366,499,7,116423,109976
4368,500,7,116433,109984
4371,499,7,116428,109982
4373,499,7,116431,109977
4376,499,7,116441,109989
4378,500,7,116454,109989
4381,501,7,116453,109990
4383,501,7,116459,109994
4386,501,7,116469,109987
4388,501,7,116472,109990
4390,501,7,116470,109994
4393,501,7,116475,110001
4396,501,7,116479,110000
4399,501,7,116487,110006
4401,501,7,116486,110008
4404,501,7,116486,110009
4406,501,7,116503,110003
4408,501,7,116503,110011
4411,502,7,116508,110011
4413,502,7,116519,110019
4416,501,7,116526,110013
4418,501,7,116526,110018
4421,500,7,116529,110018
4423,500,7,116526,110017
4426,500,7,116529,110022
4428,500,7,116545,110024
4430,499,7,116558,110028
4433,498,7,116553,110031
4435,497,7,116557,110030
4439,497,7,116562,110036
4441,498,7,116568,110033
4444,499,7,116574,110046
4446,500,7,116577,110042
4448,502,7,116586,110048
4451,506,7,116587,110040
4453,506,7,116588,110049
4456,507,7,116609,110044
4458,507,7,116604,110048
4461,506,7,116616,110054
4463,505,7,116604,110057
4466,504,7,116619,110052
4468,504,7,116614,110064
4470,503,7,116632,110064
4473,502,7,116634,110069
4475,502,7,116633,110073
4478,501,7,116646,110071
4481,501,7,116648,110068
4484,500,7,116657,110072
4486,499,7,116662,110076
4488,499,7,116662,110082
4491,500,7,116675,110079
4493,500,7,116672,110083
4496,500,7,116676,110079
4498,501,7,116680,110082
4501,501,7,116683,110085
4503,501,7,116692,110094
4506,501,7,116699,110094
4508,501,7,116707,110095
4510,501,7,116709,110093
4513,501,7,116715,110100
4515,502,7,116720,110105
4518,502,7,116723,110106
4520,502,7,116729,110104
4524,503,7,116726,110106
4526,502,7,116742,110106
4528,502,7,116741,110106
4531,501,7,116757,110116
4533,501,7,116745,110107
4536,500,7,116758,110111
4538,499,7,116764,110110
4541,497,7,116770,110106
4543,485,7,116782,110114
4546,475,7,116781,110119
4548,465,7,116795,110121
4550,452,7,116794,110121
4553,422,7,116802,110131
4555,407,7,116805,110130
4558,397,7,116805,110133
4560,391,7,116814,110134
4563,392,7,116822,110134
4566,413,7,116840,110138
4568,429,7,116826,110134
4571,484,7,116833,110137
4573,521,7,116833,110140
4576,576,7,116853,110150
4578,637,7,116851,110146
4581,661,7,116851,110142
4583,683,7,116860,110146
4586,689,7,116862,110146
4588,677,7,116882,110157
4590,667,7,116881,110150
4593,648,7,116877,110163
4595,638,8,116877,110162
4598,619,7,116892,110164
4600,591,8,116898,110161
4603,571,8,116898,110162
4605,542,7,116907,110165
4608,524,8,116909,110165
4611,497,8,116917,110168
4613,489,7,116917,110165
4616,481,7,116917,110173
4618,477,8,116916,110173
4621,472,8,116937,110169
4623,466,7,116939,110179
4626,465,8,116930,110178
4628,467,8,116942,110180
4630,469,7,116946,110180
4633,474,7,116952,110180
4635,476,7,116952,110187
4638,477,8,116958,110195
4640,478,7,116965,110195
4643,478,7,116970,110193
4645,479,7,116970,110188
4647,480,7,116969,110192
4651,481,7,116982,110192
4653,481,7,116994,110195
4656,481,7,116992,110203
4658,482,7,116992,110203
4661,483,7,117000,110202
4663,483,7,117008,110202
4666,483,7,117012,110207
4668,483,7,117012,110206
4670,484,7,117019,110212
4673,484,7,117027,110212
4675,485,8,117042,110215
4678,485,7,117050,110222
4680,486,7,117050,110219
4683,486,7,117056,110221
4685,487,7,117067,110221
4687,487,7,117080,110231
4690,488,7,117084,110230
4692,488,7,117083,110230
4696,488,7,117083,110241
4698,488,7,117094,110245
4701,488,7,117116,110245
4703,488,7,117116,110245
4706,489,7,117118,110243
4708,489,7,117127,110243
4710,489,7,117135,110245
4713,490,7,117135,110260
4715,491,7,117145,110255
4718,491,7,117153,110255
4720,492,7,117173,110261
4723,492,7,117173,110267
4725,492,7,117174,110267
4727,493,7,117179,110276
4730,494,7,117179,110276
4732,494,7,117192,110279
4736,495,7,117204,110279
4738,495,7,117208,110286
4741,494,7,117208,110284
4743,495,7,117215,110281
4746,495,7,117209,110281
4748,495,7,117213,110285
4750,496,7,117204,110288
4753,496,7,117204,110270
4755,496,7,117205,110276
4758,497,7,117153,110276
4760,497,7,117131,110260
4763,497,7,117131,110244
4765,498,7,117106,110230
4767,498,7,117078,110230
4770,498,7,117002,110220
4772,498,7,116955,110206
4775,498,7,116955,110176
4777,498,7,116910,110169
4781,498,7,116799,110140
4783,498,7,116754,110132
4786,499,7,116754,110085
4788,499,7,116700,110072
4790,500,7,116644,110072
4793,500,7,116600,110055
4795,500,7,116547,110035
4798,499,7,116506,110021
4800,499,7,116460,110008
4803,499,7,116387,109993
4805,499,7,116352,109984
4807,499,7,116352,109954
4810,499,7,116321,109954
4812,499,7,116280,109946
4815,499,7,116260,109934
4817,499,7,116238,109918
4820,499,7,116212,109918
4823,500,7,116185,109907
4826,500,7,116157,109899
4828,500,7,116150,109893
4830,501,7,116124,109893
4833,501,7,116115,109876
4835,501,7,116108,109878
4838,501,7,116099,109878
4840,501,7,116094,109877
4843,501,7,116092,109873
4845,501,7,116084,109867
4847,500,7,116070,109866
4850,500,7,116080,109870
4852,500,7,116075,109866
4855,501,7,116067,109863
4857,501,7,116081,109867
4860,502,7,116079,109866
4862,502,7,116100,109862
4866,503,7,116099,109872
4868,504,7,116104,109871
4870,504,7,116104,109866
4873,504,7,116113,109880
4875,504,7,116122,109882
4878,505,7,116132,109881
4880,505,7,116132,109884
4883,505,7,116141,109884
4885,505,7,116144,109880
4887,504,7,116163,109888
4890,504,7,116161,109892
4892,504,7,116172,109899
4895,504,7,116175,109897
4897,504,7,116176,109897
4900,505,7,116176,109893
4902,504,7,116183,109898
4905,504,7,116181,109906
4908,503,7,116188,109903
4910,502,7,116195,109902
4913,502,7,116189,109901
4915,501,7,116181,109894
4918,500,7,116179,109888
4920,500,7,116172,109890
4923,499,7,116170,109898
4925,499,7,116166,109892
4927,499,7,116156,109890
4930,499,7,116145,109879
4932,499,7,116154,109881
4935,499,7,116147,109877
4937,499,7,116140,109872
4940,499,7,116134,109874
4942,499,7,116123,109861
4945,499,7,116109,109857
4947,499,7,116107,109860
4950,499,7,116089,109859
4953,499,7,116082,109848
4955,499,7,116064,109845
4958,500,7,116065,109843
4960,500,7,116052,109831
4963,500,7,116038,109833
4965,501,7,116035,109825
4967,501,7,116021,109824
4970,502,7,116009,109819
4972,502,7,116012,109818
4975,502,7,116001,109818
4977,502,7,115989,109811
4980,502,7,115985,109809
4982,502,7,115973,109802
4985,502,7,115966,109797
4987,501,7,115955,109801
4989,501,7,115957,109797
4993,502,7,115947,109798
4995,502,7,115948,109795
4998,502,7,115943,109802
5000,503,7,115944,109779
5003,503,7,115951,109792
5005,503,7,115939,109797
5007,503,7,115939,109786
5010,503,7,115939,109795
5012,504,7,115936,109790
5015,504,7,115936,109789
5017,504,7,115951,109789
5020,503,7,115951,109790
5022,503,7,115953,109799
5025,503,7,115957,109799
5027,503,7,115962,109798
5029,503,7,115981,109789
5032,503,7,115982,109801
5035,503,7,115984,109809
5038,503,7,115996,109808
5040,503,7,116003,109805
5043,503,7,116003,109812
5045,503,7,116021,109813
5047,503,7,116037,109813
5050,503,7,116049,109826
5052,503,7,116055,109828
5055,503,7,116058,109829
5057,503,8,116058,109825
5060,503,7,116084,109833
5062,503,7,116088,109834
5065,503,7,116088,109831
5067,503,7,116097,109836
5069,503,7,116103,109836
5072,503,7,116114,109849
5074,503,7,116114,109844
5078,503,7,116114,109839
5080,503,7,116121,109839
5083,503,7,116122,109847
5085,503,7,116117,109838
5087,504,7,116117,109848
5090,504,7,116123,109843
5092,504,7,116123,109843
5095,504,7,116126,109849
5097,504,7,116126,109852
5100,504,7,116123,109851
5102,504,7,116125,109851
5105,504,7,116119,109853
5107,505,7,116124,109849
5109,505,7,116124,109853
5112,506,7,116118,109854
5114,506,7,116116,109854
5117,505,7,116127,109850
5120,505,7,116123,109847
5123,504,7,116123,109854
5125,504,7,116123,109852
5127,505,7,116121,109854
5130,505,7,116115,109855
5132,506,8,116117,109855
5135,506,7,116119,109851
5137,506,7,116119,109852
5140,505,7,116123,109851
5142,506,7,116125,109851
5145,505,7,116117,109857
5147,506,7,116117,109857
5149,506,8,116127,109850
5152,507,7,116122,109848
5154,507,7,116122,109853
5157,507,7,116130,109860
5159,508,8,116131,109860
5163,507,7,116131,109853
5165,507,7,116134,109853
5167,506,7,116141,109861
5170,506,7,116141,109858
5172,506,7,116137,109861
5175,507,7,116145,109861
5177,507,7,116151,109860
5180,507,7,116153,109859
5182,508,7,116153,109854
5185,508,7,116156,109862
5187,508,7,116165,109862
5189,508,7,116170,109869
5192,507,7,116170,109871
5194,507,8,116170,109865
5197,508,7,116178,109865
5199,508,7,116191,109864
5202,508,7,116191,109869
5204,507,7,116186,109869
5207,507,7,116186,109875
5210,507,7,116193,109870
5212,507,7,116191,109870
5215,507,7,116208,109869
5217,506,7,116202,109884
5220,506,7,116202,109888
5222,506,7,116211,109884
5225,506,7,116216,109884
5227,506,7,116216,109888
5229,506,7,116218,109889
5232,506,7,116223,109889
5234,505,7,116223,109891
5237,505,7,116234,109899
5239,505,8,116231,109895
5242,505,7,116234,109895
5244,505,7,116247,109889
5246,506,7,116247,109897
5250,506,7,116255,109897
5252,506,7,116255,109902
5255,505,7,116251,109907
5257,505,7,116257,109908
5260,506,7,116260,109908
5262,506,7,116264,109908
5265,507,7,116272,109904
5267,507,7,116266,109910
5269,506,7,116274,109905
5272,505,7,116277,109919
5274,505,7,116277,109911
5277,505,8,116283,109914
5279,506,7,116285,109914
5282,506,7,116293,109919
5284,505,7,116296,109922
5286,505,7,116296,109918
5289,505,7,116301,109921
5292,505,7,116305,109922
5295,505,7,116307,109924
5297,506,7,116307,109918
5300,506,7,116306,109918
5302,506,7,116306,109922
5305,506,7,116322,109926
5307,506,7,116322,109933
5309,506,7,116327,109924
5312,506,7,116326,109932
5314,506,7,116321,109932
5317,506,7,116328,109927
5319,507,7,116335,109929
5322,507,7,116340,109936
5324,506,7,116349,109935
5326,506,7,116345,109941
5329,506,7,116334,109938
5331,506,7,116353,109936
5335,506,7,116361,109940
5337,505,7,116358,109940
5340,505,7,116357,109950
5342,506,7,116365,109944
5345,507,7,116366,109951
5347,507,7,116371,109941
5349,507,7,116373,109951
5352,507,7,116376,109955
5354,508,7,116381,109949
5357,508,7,116380,109956
5359,508,7,116386,109943
5362,508,7,116394,109953
5364,509,7,116388,109954
5366,508,7,116386,109963
5369,508,7,116400,109956
5371,508,7,116406,109954
5374,507,8,116416,109962
5377,507,7,116417,109963
5380,507,7,116417,109965
5382,508,7,116420,109967
5385,508,7,116426,109967
5387,509,7,116419,109971
5389,508,7,116429,109970
5392,508,7,116432,109974
5394,509,7,116448,109982
5397,509,7,116446,109979
5399,509,7,116456,109984
5402,509,7,116459,109990
5404,509,7,116463,109991
5406,509,7,116466,109997
5409,509,7,116477,109994
5411,509,7,116486,109993
5414,509,7,116474,109997
5416,509,7,116477,110002
5420,509,7,116493,110000
5422,509,7,116498,110002
5425,508,7,116495,110008
5427,507,7,116502,110007
5429,507,7,116503,110010
5432,507,7,116507,110003
5434,507,7,116516,110009
5437,507,7,116509,110016
5439,507,7,116521,110016
5442,507,7,116533,110016
5444,507,7,116533,110023
5446,507,7,116533,110011
5449,508,7,116536,110027
5451,510,7,116543,110024
5454,513,7,116544,110026
5456,514,7,116557,110028
5459,514,8,116553,110029
5462,515,7,116564,110029
5465,515,7,116556,110031
5467,514,7,116562,110038
5469,513,7,116576,110028
5472,512,7,116576,110043
5474,512,7,116577,110036
5477,512,7,116572,110037
5479,512,7,116590,110038
5482,511,7,116590,110047
5484,510,7,116600,110047
5486,510,7,116595,110045
5489,509,7,116609,110048
5491,508,7,116606,110044
5494,508,7,116608,110062
5496,508,7,116617,110056
5499,509,7,116630,110065
5501,509,7,116639,110063
5505,510,7,116639,110066
5507,511,7,116640,110059
5509,511,7,116639,110059
5512,510,7,116656,110071
5514,510,7,116661,110065
5517,510,7,116661,110070
5519,510,7,116661,110069
5522,511,7,116664,110069
5524,511,7,116679,110079
5526,511,7,116683,110079
5529,511,7,116687,110085
5531,511,7,116687,110084
5534,511,7,116688,110084
5536,511,7,116693,110093
5539,511,7,116693,110091
5541,511,7,116701,110092
5544,512,7,116713,110092
5547,509,8,116722,110100
5549,506,7,116723,110099
5552,493,7,116730,110106
5554,483,7,116730,110106
5557,468,7,116736,110109
5559,447,8,116736,110110
5562,433,7,116736,110105
5564,415,7,116750,110119
5566,406,7,116744,110119
5569,400,7,116758,110111
5571,405,7,116758,110118
5574,420,7,116767,110122
5576,441,7,116767,110122
5579,476,7,116783,110117
5581,548,7,116781,110123
5584,581,7,116779,110125
5586,655,7,116781,110127
5588,675,8,116791,110127
5592,703,7,116801,110128
5594,703,7,116801,110136
5597,691,8,116812,110138
5599,678,8,116811,110138
5602,665,8,116823,110140
5604,644,8,116823,110140
5606,622,8,116822,110142
5609,604,8,116832,110142
5611,581,8,116838,110150
5614,556,8,116839,110154
5616,520,8,116839,110151
5619,504,8,116845,110158
5621,496,8,116852,110158
5624,488,8,116864,110160
5626,478,7,116864,110158
5628,473,7,116865,110161
5632,472,7,116861,110161
5634,472,8,116869,110160
5637,473,7,116878,110168
5639,479,7,116878,110167
5642,482,7,116884,110164
5644,484,7,116887,110164
5646,486,7,116891,110163
5649,487,7,116890,110165
5651,487,8,116906,110165
5654,488,8,116906,110184
5656,489,8,116903,110178
5659,490,7,116907,110178
5661,491,8,116907,110184
5664,491,7,116927,110184
5666,492,7,116924,110184
5668,492,7,116928,110189
5671,492,7,116928,110184
5673,493,7,116943,110194
5677,493,7,116944,110194
5679,493,8,116965,110190
5682,494,7,116965,110200
5684,495,8,116967,110200
5686,495,7,116972,110207
5689,495,7,116972,110207
5691,496,7,116975,110210
5694,496,8,116989,110210
5696,496,7,116993,110213
5699,497,8,116993,110224
5701,497,7,117007,110217
5704,498,7,117015,110217
5706,499,7,117029,110223
5708,499,7,117030,110232
5711,500,7,117030,110235
5713,500,7,117045,110233
5716,500,7,117037,110233
5719,500,7,117051,110238
5722,501,7,117051,110247
5724,501,7,117056,110243
5726,502,7,117072,110243
5729,502,7,117077,110244
5731,503,7,117077,110241
5734,503,7,117077,110255
5736,504,7,117100,110255
5739,504,7,117101,110255
5741,504,7,117106,110257
5744,505,7,117106,110265
5746,505,7,117116,110263
5748,505,7,117118,110263
5751,505,7,117116,110275
5753,505,7,117117,110270
5756,505,8,117119,110265
5758,506,7,117115,110264
5762,506,7,117096,110268
5764,507,7,117077,110258
5766,507,7,117077,110251
5769,507,7,117070,110251
5771,507,7,117038,110238
5774,507,7,117016,110228
5776,507,7,116986,110210
5779,506,7,116944,110190
5781,507,7,116894,110179
5784,507,7,116844,110171
5786,508,7,116795,110146
5788,509,7,116738,110129
5791,508,7,116696,110114
5793,508,7,116655,110099
5796,507,7,116613,110074
5798,508,7,116561,110058
5801,508,7,116518,110037
5804,508,7,116470,110021
5806,508,7,116426,110015
5809,508,7,116380,109992
5811,508,7,116341,109980
5814,508,7,116300,109974
5816,508,7,116264,109957
5819,508,7,116236,109946
5821,508,7,116212,109924
5824,508,7,116178,109922
5826,508,7,116161,109912
5828,508,7,116133,109910
5831,508,7,116109,109891
5833,508,7,116093,109887
5836,508,7,116074,109881
5838,509,7,116059,109872
5841,509,7,116049,109872
5843,509,7,116037,109869
5846,509,7,116031,109872
5849,511,7,116014,109859
5851,511,7,116020,109855
5854,512,7,116025,109859
5856,512,7,116020,109856
5859,512,7,116015,109859
5861,511,7,116005,109849
5864,512,7,116015,109848
5866,512,7,116007,109845
5868,513,7,116008,109842
5871,513,7,116011,109856
5873,513,7,116028,109850
5876,513,7,116015,109849
5878,513,7,116021,109848
5881,513,7,116034,109846
5883,512,7,116035,109853
5885,512,7,116044,109857
5889,513,7,116041,109860
5891,513,7,116051,109862
5894,514,7,116053,109869
5896,515,7,116054,109861
5899,515,7,116064,109856
5901,515,7,116070,109856
5904,516,7,116062,109862
5906,516,7,116064,109862
5908,516,7,116066,109874
5911,515,7,116068,109865
5913,515,7,116075,109871
5916,514,7,116065,109874
5918,513,7,116065,109864
5921,513,7,116074,109858
5923,512,7,116058,109866
5925,512,7,116066,109860
5928,512,7,116059,109862
5931,512,7,116042,109862
5934,513,7,116040,109853
5936,513,7,116041,109845
5939,513,7,116025,109841
5941,512,7,116013,109841
5944,510,7,116008,109833
5946,509,7,116001,109832
5948,510,7,115982,109818
5951,509,7,115976,109827
5953,510,7,115961,109823
5956,509,7,115949,109811
5958,509,7,115950,109803
5961,510,7,115933,109803
5963,510,7,115917,109789
5965,511,7,115907,109778
5968,511,7,115895,109786
5970,511,7,115889,109779
5974,511,7,115878,109773
5976,511,7,115863,109765
5979,512,7,115861,109761
5981,512,7,115856,109763
5984,512,7,115856,109762
5986,512,7,115831,109751
5988,512,7,115819,109751
5991,513,7,115817,109740
5993,514,7,115806,109739
5996,514,7,115806,109734
5998,514,7,115798,109734
6001,514,7,115793,109734
6003,513,7,115798,109738
6005,513,7,115789,109735
6008,513,7,115787,109739
6010,512,7,115787,109727
6013,512,7,115791,109737
6016,512,8,115797,109740
6019,512,8,115797,109739
6021,512,7,115795,109739
6024,513,7,115801,109739
6026,512,7,115812,109745
6028,512,7,115806,109740
6031,512,7,115809,109736
6033,512,7,115809,109743
6036,512,7,115826,109746
6038,512,8,115827,109749
6041,511,7,115827,109744
6043,511,7,115840,109745
6045,511,8,115857,109745
6048,512,7,115866,109757
6050,512,7,115866,109770
6053,512,8,115879,109773
6055,512,7,115888,109773
6059,512,7,115903,109771
6061,512,8,115904,109775
6064,511,8,115915,109781
6066,511,8,115917,109773
6068,511,7,115920,109773
6071,511,7,115928,109783
6073,511,7,115928,109784
6076,511,7,115939,109779
6078,512,7,115940,109779
6081,512,8,115947,109788
6083,512,7,115947,109783
6085,512,7,115945,109785
6088,512,8,115944,109785
6090,511,8,115951,109786
6093,511,7,115955,109782
6095,511,7,115955,109790
6098,510,8,115946,109793
6100,510,8,115956,109793
6104,510,7,115952,109791
6106,510,8,115952,109783
6108,510,7,115953,109780
6111,511,7,115939,109780
6113,511,7,115947,109783
6116,511,7,115942,109781
6118,511,7,115942,109776
6121,511,7,115933,109782
6123,511,7,115936,109782
6125,511,7,115944,109776
6128,511,7,115936,109776
6130,511,7,115934,109776
6133,511,7,115934,109781
6135,512,7,115933,109778
6138,512,8,115935,109778
6140,512,7,115935,109779
6144,512,7,115948,109783
6146,512,7,115950,109783
6148,512,7,115939,109788
6151,512,7,115939,109783
6153,512,7,115947,109778
6156,512,7,115946,109778
6158,512,7,115951,109779
6161,513,7,115951,109794
6163,513,8,115949,109794
6165,512,7,115953,109786
6168,512,7,115953,109795
6170,512,7,115956,109790
6173,512,8,115966,109790
6175,512,7,115973,109794
6178,513,8,115973,109789
6180,513,7,115973,109800
6183,514,7,115973,109800
6185,514,8,115979,109798
6188,514,7,115985,109797
6191,513,7,115985,109799
6193,513,7,115990,109802
6196,513,8,115992,109802
6198,512,7,115995,109807
6201,511,7,115995,109803
6203,510,7,115997,109801
6205,510,7,116002,109801
6208,510,8,116013,109810
6210,510,7,116012,109816
6213,511,7,116012,109813
6215,511,7,116025,109813
6218,512,8,116020,109808
6220,512,7,116029,109814
6223,512,7,116029,109817
6225,513,7,116039,109819
6227,513,7,116045,109819
6231,512,7,116047,109825
6233,512,7,116053,109818
6236,513,7,116053,109826
6238,513,7,116062,109832
6241,513,7,116073,109831
6243,512,7,116078,109840
6245,512,7,116078,109838
6248,512,7,116084,109838
6250,513,7,116080,109832
6253,513,7,116094,109843
6255,512,7,116105,109841
6258,512,7,116108,109847
6260,512,7,116110,109853
6263,512,7,116109,109847
6265,512,7,116123,109852
6267,512,7,116115,109851
6270,512,7,116121,109856
6273,513,7,116131,109849
6276,513,7,116124,109853
6278,513,7,116141,109851
6281,513,7,116145,109862
6283,512,7,116141,109855
6285,512,7,116143,109864
6288,512,7,116142,109859
6290,512,7,116144,109858
6293,513,7,116148,109864
6295,512,7,116154,109868
6298,512,7,116161,109869
6300,512,7,116173,109869
6303,511,7,116176,109871
6305,511,7,116184,109874
6307,511,7,116193,109875
6310,511,7,116178,109876
6312,511,7,116194,109876
6316,511,7,116197,109888
6318,511,7,116196,109878
6321,511,7,116201,109882
6323,512,7,116204,109880
6325,513,7,116213,109888
6328,513,7,116219,109887
6330,513,7,116214,109885
6333,512,7,116230,109891
6335,512,7,116239,109890
6338,512,7,116229,109891
6340,512,7,116230,109897
6343,512,7,116243,109893
6345,512,7,116234,109902
6347,512,7,116245,109906
6350,512,7,116258,109894
6352,512,7,116269,109911
6355,512,7,116257,109904
6358,512,7,116262,109910
6361,512,7,116271,109911
6363,512,7,116281,109906
6365,512,7,116284,109915
6368,512,7,116287,109915
6370,512,7,116286,109919
6373,513,7,116285,109922
6375,513,7,116286,109924
6378,513,7,116305,109916
6380,513,7,116312,109923
6383,513,7,116311,109931
6385,512,7,116316,109928
6387,512,7,116327,109937
6390,513,7,116329,109937
6392,513,7,116339,109935
6395,513,7,116334,109941
6397,514,7,116337,109933
6401,514,7,116334,109945
6403,513,7,116351,109944
6405,512,7,116353,109941
6408,511,7,116357,109947
6410,510,7,116365,109956
6413,510,7,116366,109957
6415,510,7,116375,109957
6418,510,7,116376,109956
6420,511,7,116379,109961
6423,511,8,116392,109962
6425,511,7,116386,109967
6427,511,7,116398,109966
6430,511,7,116397,109966
6432,511,7,116408,109969
6435,511,7,116408,109973
6437,512,7,116416,109976
6440,511,7,116423,109972
6443,512,7,116422,109982
6445,512,7,116438,109981
6448,512,7,116441,109979
6450,512,7,116447,109986
6453,512,7,116449,109982
6455,511,7,116448,109986
6458,512,7,116454,109980
6460,512,7,116462,109992
6463,512,7,116462,109997
6465,512,7,116473,109992
6467,512,7,116477,109992
6470,512,7,116469,109995
6472,512,7,116487,109992
6475,511,7,116487,110002
6477,511,7,116489,110000
6480,511,7,116491,110000
6482,512,7,116503,110007
6484,512,7,116512,110003
6488,512,7,116521,110007
6490,512,7,116521,110008
6493,512,7,116517,110011
6495,511,8,116520,110013
6498,511,7,116520,110011
6500,511,8,116532,110016
6503,511,7,116536,110016
6505,511,7,116548,110024
6507,510,7,116551,110021
6510,511,7,116560,110026
6512,511,7,116560,110028
6515,511,7,116560,110030
6517,511,7,116570,110036
6520,511,7,116570,110031
6522,510,7,116591,110038
6524,510,7,116590,110038
6528,508,7,116601,110048
6530,507,7,116601,110050
6533,507,7,116614,110051
6535,507,8,116613,110051
6538,507,8,116637,110053
6540,507,7,116637,110058
6543,507,8,116635,110066
6545,508,7,116645,110068
6547,508,8,116655,110068
6550,508,7,116658,110070
6552,509,8,116658,110081
6555,510,7,116676,110080
6557,512,8,116681,110080
6560,513,7,116689,110085
6562,515,7,116695,110085
6564,515,7,116695,110083
6567,515,7,116705,110083
6569,516,7,116709,110093
6573,515,7,116718,110088
6575,515,7,116718,110095
6578,514,7,116728,110104
6580,514,7,116738,110104
6583,513,7,116745,110102
6585,512,8,116745,110101
6587,511,7,116755,110103
6590,510,7,116755,110103
6592,510,8,116763,110118
6595,509,7,116767,110112
6597,509,7,116767,110109
6600,509,7,116778,110112
6602,510,7,116776,110112
6604,510,7,116792,110121
6607,510,7,116799,110118
6609,510,7,116798,110118
6612,511,7,116798,110127
6615,510,7,116806,110125
6618,511,7,116811,110125
6620,511,8,116811,110128
6623,511,7,116824,110132
6625,511,7,116823,110132
6627,510,7,116840,110143
6630,510,8,116840,110146
6632,510,7,116848,110145
6635,510,8,116854,110145
6637,510,8,116865,110148
6640,511,7,116865,110157
6642,511,7,116868,110157
6644,510,8,116875,110154
6647,508,7,116875,110163
6649,505,7,116881,110165
6652,500,7,116890,110165
6654,491,7,116902,110164
6658,471,7,116902,110178
6660,455,7,116905,110172
6663,442,7,116909,110172
6665,426,7,116932,110175
6667,413,7,116931,110188
6670,398,7,116931,110181
6672,400,7,116938,110180
6675,408,7,116938,110180
6677,421,7,116947,110184
6680,447,7,116947,110186
6682,529,7,116952,110195
6684,568,7,116966,110195
6687,616,7,116972,110198
6689,650,7,116966,110203
6692,693,7,116966,110196
6694,701,8,116985,110199
6697,698,8,116989,110199
6700,688,7,116995,110211
6703,675,7,116995,110207
6705,653,7,117000,110208
6707,641,8,117008,110208
6710,622,7,117004,110207
6712,601,8,117011,110216
6715,580,8,117018,110215
6717,536,7,117023,110211
6720,520,8,117037,110215
6722,508,8,117036,110219
6724,501,7,117036,110221
6727,494,7,117046,110221
6729,485,8,117051,110225
6732,479,7,117060,110220
6734,474,7,117061,110219
6737,474,7,117072,110230
6739,476,7,117064,110229
6743,478,7,117062,110229
6745,481,7,117083,110234
6747,483,7,117080,110241
6750,484,7,117093,110240
6752,485,8,117098,110248
6755,485,7,117098,110249
6757,486,7,117099,110235
6760,487,7,117104,110248
6762,488,7,117115,110252
6764,489,7,117124,110254
6767,490,7,117108,110255
6769,490,7,117131,110254
6772,491,7,117133,110257
6774,491,7,117131,110254
6777,492,7,117138,110260
6779,492,7,117142,110260
6782,491,7,117144,110263
6785,492,7,117159,110266
6787,492,7,117158,110269
6790,493,7,117159,110268
6792,494,7,117167,110280
6795,494,7,117175,110272
6797,495,7,117185,110279
6800,495,7,117197,110282
6802,495,7,117199,110291
6804,496,7,117200,110283
6807,496,7,117210,110293
6809,496,7,117213,110289
6812,496,7,117218,110290
6814,496,7,117221,110300
6817,496,7,117228,110299
6819,497,7,117238,110297
6822,498,7,117242,110303
6824,498,7,117255,110306
6827,498,7,117268,110303
6830,498,7,117272,110310
6832,499,7,117288,110316
6835,500,7,117286,110324
6837,500,7,117297,110317
6840,500,7,117299,110331
6842,500,7,117302,110323
6844,501,7,117316,110335
6847,502,7,117313,110329
6849,503,7,117318,110330
6852,503,7,117322,110329
6854,504,7,117326,110333
6857,504,7,117330,110331
6859,504,7,117324,110333
6862,504,7,117315,110325
6864,504,7,117297,110328
6866,504,7,117284,110317
6870,504,7,117255,110307
6872,504,7,117224,110298
6875,504,7,117183,110279
6877,504,7,117141,110273
6880,504,7,117103,110254
6882,504,7,117063,110238
6884,504,7,117001,110222
6887,505,7,116944,110204
6889,505,7,116894,110185
6892,505,7,116836,110155
6894,506,7,116777,110139
6897,506,7,116723,110120
6899,506,7,116670,110094
6902,506,7,116626,110085
6904,506,7,116579,110069
6906,506,7,116521,110050
6909,506,7,116487,110033
6912,507,7,116436,110022
6915,507,7,116393,110002
6917,507,7,116353,109994
6920,507,7,116321,109975
6922,508,7,116288,109966
6924,508,7,116263,109953
6927,508,7,116238,109945
6929,507,7,116199,109938
6932,507,7,116182,109923
6934,508,7,116165,109911
6937,507,7,116138,109908
6939,508,7,116131,109895
6942,508,7,116107,109897
6944,509,7,116104,109892
6946,509,7,116099,109894
6949,508,7,116088,109885
6951,509,7,116081,109882
6955,509,7,116081,109882
6957,510,7,116074,109882
6960,510,7,116072,109882
6962,510,7,116090,109888
6964,510,7,116080,109885
6967,511,7,116090,109884
6969,511,7,116090,109879
6972,511,7,116094,109876
6974,511,7,116097,109887
6977,511,7,116097,109891
6979,511,7,116110,109895
6982,512,7,116125,109895
6984,512,7,116137,109906
6986,512,7,116134,109900
6989,513,7,116140,109906
6991,514,7,116140,109900
6994,514,7,116140,109901
6996,514,8,116153,109901
7000,514,7,116153,109907
7002,514,7,116163,109901
7004,514,7,116172,109901
7007,513,7,116175,109911
7009,513,7,116175,109914
7012,512,7,116173,109907
7014,513,7,116173,109907
7017,512,7,116189,109910
7019,512,7,116187,109906
7022,512,8,116179,109919
7024,512,8,116184,109909
7026,512,8,116178,109909
7029,511,7,116179,109905
7031,510,8,116179,109902
7034,510,7,116169,109901
7036,510,7,116163,109901
7040,509,8,116159,109896
7042,508,7,116152,109888
7044,508,7,116152,109883
7047,508,8,116133,109883
7049,508,8,116124,109881
7052,508,7,116115,109873
7054,507,7,116115,109873
7057,508,7,116105,109859
7059,508,7,116081,109859
7062,508,7,116083,109867
7064,508,7,116083,109855
7066,508,7,116067,109852
7069,508,7,116048,109852
7071,509,8,116037,109839
7074,509,7,116026,109850
7076,509,7,116026,109837
7079,510,7,116011,109828
7081,510,7,116001,109828
7084,510,7,116004,109830
7087,511,7,115984,109819
7089,511,8,115978,109819
7092,511,7,115978,109823
7094,511,7,115976,109816
7097,511,7,115969,109816
7099,511,7,115969,109816
7102,511,8,115972,109813
7104,512,7,115959,109813
7106,511,7,115949,109805
7109,511,7,115949,109807
7111,511,8,115948,109807
7114,511,7,115948,109803
7116,510,7,115949,109804
7119,511,7,115948,109804
7121,510,7,115948,109805
7123,510,7,115961,109805
7127,511,8,115951,109805
7129,510,8,115951,109808
7132,510,7,115966,109816
7134,510,7,115973,109818
7137,510,8,115977,109818
7139,510,7,115983,109816
7142,510,7,115983,109819
7144,510,8,115995,109819
7146,510,8,116002,109829
7149,510,8,116002,109832
7151,510,7,116020,109832
7154,510,8,116033,109832
7156,509,8,116041,109837
7159,509,7,116041,109843
7161,510,7,116055,109843
7163,510,8,116052,109843
7166,510,8,116079,109851
7169,511,7,116087,109859
7172,510,7,116087,109861
7174,510,7,116103,109857
7177,510,8,116102,109857
7179,510,7,116110,109869
7182,509,7,116110,109865
7184,509,7,116110,109870
7186,509,7,116109,109870
7189,509,7,116117,109871
7191,510,7,116119,109870
7194,510,7,116121,109865
7196,511,7,116117,109878
7199,511,7,116125,109870
7201,511,8,116127,109868
7203,511,7,116127,109873
7206,511,7,116130,109873
7208,511,7,116126,109872
7212,510,8,116131,109866
7214,511,7,116130,109872
7217,511,7,116127,109866
7219,511,7,116120,109870
7222,510,7,116126,109871
7224,510,7,116128,109863
7226,510,7,116119,109868
7229,509,7,116126,109875
7231,510,7,116122,109872
7234,509,7,116119,109864
7236,510,7,116124,109862
7239,510,7,116118,109863
7241,510,7,116124,109868
7243,510,7,116130,109864
7246,510,7,116116,109868
7248,510,7,116125,109869
7251,511,7,116127,109869
7254,511,7,116125,109866
7257,511,7,116119,109866
7259,511,7,116127,109869
7262,511,7,116129,109869
7264,510,7,116134,109872
7266,510,7,116132,109873
7269,510,7,116135,109867
7271,511,7,116134,109875
7274,510,7,116137,109878
7276,510,7,116154,109871
7279,511,7,116155,109881
7281,511,7,116150,109882
7283,511,7,116152,109873
7286,512,7,116156,109879
7288,511,7,116159,109872
7291,511,7,116158,109876
7293,511,7,116164,109881
7297,511,7,116161,109882
7299,511,7,116172,109886
7302,510,7,116179,109887
7304,510,7,116182,109885
7306,510,7,116196,109895
7309,511,7,116194,109892
7311,511,7,116204,109892
7314,512,7,116204,109886
7316,511,7,116201,109893
7319,511,7,116206,109901
7321,510,7,116205,109898
7323,510,7,116216,109899
7326,510,7,116219,109904
7328,510,7,116223,109911
7331,510,7,116223,109907
7333,511,7,116242,109908
7336,511,7,116253,109905
7339,510,7,116258,109912
7342,510,7,116251,109914
7344,510,7,116251,109920
7346,510,7,116259,109921
7349,510,7,116251,109923
7351,510,7,116261,109913
7354,510,7,116263,109914
7356,510,7,116273,109924
7359,511,7,116285,109923
7361,511,7,116288,109924
7363,511,7,116280,109925
7366,510,7,116286,109929
7368,511,7,116297,109934
7371,510,7,116301,109930
7373,510,7,116300,109936
7376,510,7,116308,109944
7378,510,7,116312,109939
7382,511,7,116327,109940
7384,511,7,116324,109939
7386,511,7,116328,109945
7389,511,7,116338,109946
7391,512,7,116338,109949
7394,512,7,116338,109946
7396,511,7,116338,109945
7399,511,7,116339,109950
7401,511,7,116351,109952
7403,511,7,116353,109941
7406,511,7,116356,109954
7408,512,7,116359,109950
7411,511,7,116365,109959
7413,512,7,116365,109958
7416,512,7,116365,109963
7418,511,7,116384,109969
7421,511,7,116385,109969
7424,511,7,116389,109970
7426,510,7,116383,109968
7429,509,7,116388,109972
7431,509,7,116394,109968
7434,509,7,116394,109967
7436,509,7,116397,109970
7439,510,7,116406,109970
7441,510,7,116408,109976
7443,511,7,116404,109971
7446,511,7,116415,109974
7448,511,7,116415,109979
7451,512,7,116414,109977
7453,512,7,116414,109976
7456,511,7,116414,109982
7458,511,7,116427,109978
7461,511,7,116429,109978
7463,510,7,116440,109989
7465,510,7,116439,109987
7469,511,7,116439,109984
7471,511,8,116439,109989
7474,512,7,116440,109986
7476,512,7,116447,109991
7479,512,7,116447,109994
7481,512,7,116461,109984
7483,511,7,116465,109984
7486,511,7,116478,110002
7488,511,7,116478,110004
7491,511,7,116478,110001
7493,511,7,116488,110001
7496,511,8,116495,110009
7498,510,7,116503,110009
7501,510,7,116509,110023
7503,509,7,116506,110015
7505,510,8,116512,110015
7508,510,7,116517,110015
7511,510,7,116517,110024
7514,511,7,116522,110024
7516,511,7,116525,110024
7519,511,8,116533,110025
7521,511,7,116536,110020
7523,511,7,116536,110026
7526,510,7,116547,110033
7528,510,8,116548,110033
7531,510,7,116561,110037
7533,510,7,116561,110030
7536,510,7,116558,110040
7538,510,7,116568,110040
7541,510,7,116571,110039
7543,510,7,116571,110036
7545,510,7,116582,110045
7548,510,7,116589,110045
7550,510,7,116600,110046
7554,510,7,116600,110044
7556,511,7,116600,110049
7559,510,7,116610,110059
7561,510,7,116616,110059
7563,510,7,116619,110051
7566,510,8,116623,110047
7568,511,7,116621,110047
7571,511,7,116621,110052
7573,511,7,116634,110060
7576,511,7,116634,110060
7578,510,7,116634,110060
7581,510,8,116651,110070
7583,510,7,116655,110070
7585,509,7,116661,110063
7588,509,7,116666,110071
7590,509,7,116674,110071
7593,509,7,116674,110078
7596,509,7,116671,110078
7599,509,7,116683,110078
7601,508,8,116683,110085
7603,507,7,116695,110084
7606,507,7,116702,110084
7608,507,8,116702,110085
7611,507,7,116708,110087
7613,507,7,116707,110091
7616,507,7,116721,110091
7618,507,7,116733,110096
7621,507,7,116733,110101
7623,508,8,116740,110101
7625,508,8,116741,110111
7628,510,7,116741,110106
7630,512,7,116747,110106
7633,513,7,116754,110106
7635,514,7,116762,110107
7639,515,7,116762,110114
7641,514,7,116769,110116
7643,514,7,116774,110116
7646,514,7,116782,110117
7648,514,7,116791,110127
7651,513,7,116791,110124
7653,512,7,116799,110129
7656,512,7,116807,110129
7658,511,7,116807,110130
7661,510,7,116807,110134
7663,510,7,116823,110135
7665,510,7,116813,110135
7668,509,7,116830,110137
7670,510,7,116839,110144
7673,510,7,116837,110145
7675,511,7,116847,110149
7678,511,7,116858,110149
7681,511,7,116861,110157
7683,512,7,116861,110160
7686,511,7,116870,110156
7688,511,8,116877,110156
7691,511,7,116881,110157
7693,510,7,116885,110159
7696,510,7,116892,110157
7698,511,7,116885,110161
7701,511,8,116909,110162
7703,511,7,116909,110175
7705,512,7,116907,110162
7708,512,7,116925,110172
7710,512,7,116932,110174
7713,512,7,116939,110181
7715,513,7,116950,110176
7718,512,7,116950,110181
7720,512,7,116946,110184
7723,511,7,116948,110185
7726,507,7,116963,110188
7728,500,7,116969,110191
7731,489,7,116970,110196
7733,466,7,116981,110201
7736,451,7,116981,110198
7738,437,7,116996,110201
7741,421,7,117011,110202
7743,401,7,117008,110207
7745,400,7,117010,110211
7748,404,7,117009,110214
7750,417,7,117015,110222
7753,437,7,117036,110218
7755,505,7,117029,110217
7758,542,7,117037,110230
7760,589,7,117053,110220
7762,634,7,117051,110226
7766,688,7,117061,110233
7768,699,7,117069,110239
7771,702,7,117073,110231
7773,696,8,117075,110234
7776,679,7,117079,110238
7778,654,7,117079,110236
7781,642,7,117083,110243
7783,628,8,117101,110243
7785,611,8,117106,110243
7788,589,8,117111,110251
7790,564,7,117123,110258
7793,540,7,117130,110251
7795,513,7,117126,110256
7798,504,7,117136,110262
7800,495,7,117135,110261
7802,488,7,117140,110270
7805,478,7,117145,110274
7808,475,7,117146,110268
7811,473,7,117166,110271
7813,473,7,117163,110272
7816,476,7,117175,110276
7818,480,7,117177,110273
7821,482,7,117180,110275
7823,484,7,117179,110283
7825,486,7,117193,110286
7828,486,7,117188,110286
7830,487,7,117186,110290
7833,488,7,117192,110291
7835,488,7,117198,110288
7838,488,7,117205,110290
7840,488,7,117212,110294
7842,488,7,117222,110301
7845,489,7,117224,110296
7847,490,7,117222,110305
7851,490,7,117227,110301
7853,491,7,117234,110299
7856,491,7,117236,110302
7858,492,7,117242,110310
7861,492,7,117245,110311
7863,493,7,117256,110306
7865,493,7,117262,110315
7868,494,7,117267,110312
7870,495,7,117263,110311
7873,495,7,117276,110315
7875,495,7,117284,110324
7878,496,7,117283,110321
7880,496,7,117303,110328
7882,497,7,117308,110333
7885,498,7,117316,110328
7887,498,7,117312,110325
7890,498,7,117325,110334
7892,499,7,117334,110343
7896,499,7,117343,110345
7898,500,7,117357,110348
7901,501,7,117361,110351
7903,501,7,117370,110348
7905,501,7,117378,110359
7908,502,7,117386,110357
7910,502,7,117395,110358
7913,501,7,117395,110364
7915,502,7,117403,110369
7918,502,7,117414,110369
7920,502,7,117437,110385
7922,503,7,117433,110377
7925,503,7,117438,110376
7927,504,7,117438,110380
7930,504,7,117451,110386
7932,506,7,117446,110389
7936,506,7,117446,110386
7938,506,7,117448,110384
7941,507,7,117441,110384
7943,506,7,117433,110378
7945,505,7,117413,110373
7948,505,7,117388,110359
7950,505,7,117388,110343
7953,506,7,117310,110333
7955,506,7,117269,110316
7958,506,7,117269,110303
7960,507,7,117173,110284
7962,507,7,117126,110284
7965,507,7,117069,110248
7967,507,7,117069,110225
7970,508,7,117009,110205
7972,508,7,116898,110205
7975,508,7,116835,110182
7977,508,7,116784,110145
7981,508,7,116723,110125
7983,508,7,116675,110103
7985,508,8,116618,110103
7988,509,7,116579,110072
7990,509,7,116579,110056
7993,508,7,116536,110050
7995,509,8,116453,110050
7998,509,7,116425,110032
8000,508,7,116391,110018
8002,508,7,116391,110001
8005,508,7,116338,109997
8007,508,7,116311,109997
8010,508,7,116286,109980
8012,508,7,116286,109964
8015,508,7,116271,109956
8017,508,7,116226,109956
8020,508,7,116215,109952
8023,509,7,116215,109940
8025,510,7,116198,109935
8028,511,7,116192,109935
8030,512,7,116188,109937
8033,512,7,116176,109938
8035,512,7,116176,109927
8038,513,7,116165,109928
8040,513,7,116169,109928
8042,513,7,116182,109931
8045,513,7,116177,109928
8047,513,7,116177,109928
8050,513,7,116177,109931
8052,514,7,116181,109934
8055,515,7,116193,109934
8057,515,7,116193,109933
8060,515,7,116208,109931
8062,516,7,116211,109931
8065,516,7,116226,109941
8068,515,7,116228,109944
8070,515,7,116240,109944
8073,515,7,116240,109951
8075,515,7,116241,109955
8078,515,7,116253,109955
8080,515,7,116253,109945
8082,515,7,116266,109957
8085,515,8,116278,109957
8087,515,7,116273,109960
8090,515,7,116273,109961
8092,515,7,116287,109961
8095,514,7,116288,109961
8097,513,7,116301,109963
8100,512,7,116301,109964
8102,511,8,116300,109964
8104,511,7,116298,109963
8108,510,7,116298,109961
8110,509,7,116296,109958
8113,509,8,116291,109958
8115,508,8,116289,109959
8118,508,7,116289,109955
8120,508,7,116287,109953
8122,508,7,116273,109953
8125,507,7,116273,109952
8127,507,7,116260,109945
8130,507,7,116260,109932
8132,507,7,116255,109943
8135,508,8,116236,109943
8137,508,7,116235,109933
8140,508,7,116235,109931
8142,508,7,116221,109927
8144,508,7,116207,109927
8147,508,7,116202,109927
8150,509,7,116189,109921
8153,509,7,116186,109908
8155,510,7,116174,109913
8158,510,7,116162,109907
8160,510,7,116157,109909
8162,510,7,116157,109897
8165,510,7,116152,109891
8167,511,7,116135,109891
8170,511,7,116134,109891
8172,511,7,116130,109886
8175,512,7,116123,109889
8177,512,7,116116,109890
8180,512,7,116116,109882
8182,511,7,116110,109882
8184,511,7,116110,109886
8187,510,7,116113,109886
8189,511,7,116109,109881
8193,511,7,116115,109888
8195,511,7,116113,109886
8198,510,7,116107,109883
8200,510,7,116119,109891
8202,510,7,116119,109889
8205,511,7,116126,109898
8207,511,7,116131,109885
8210,510,7,116140,109893
8212,510,7,116153,109900
8215,510,8,116148,109902
8217,510,7,116164,109903
8220,509,7,116176,109904
8222,510,7,116176,109915
8224,509,7,116189,109912
8227,509,7,116192,109921
8229,509,7,116206,109919
8232,509,7,116213,109924
8235,510,7,116209,109920
8238,509,7,116229,109936
8240,510,7,116239,109927
8242,510,7,116244,109935
8245,510,7,116244,109927
8247,510,7,116245,109930
8250,510,7,116257,109939
8252,510,7,116270,109940
8255,510,7,116270,109943
8257,511,7,116263,109945
8260,510,7,116272,109952
8262,510,7,116265,109941
8264,509,7,116277,109945
8267,510,7,116267,109938
8269,510,7,116270,109943
8272,510,7,116281,109946
8274,509,7,116270,109944
8278,509,7,116273,109942
8280,510,7,116284,109942
8282,510,7,116268,109951
8285,510,7,116274,109947
8287,510,7,116280,109944
8290,510,7,116276,109941
8292,511,7,116269,109938
8295,511,7,116272,109943
8297,510,7,116264,109941
8300,510,7,116274,109938
8302,511,7,116265,109942
8304,511,7,116270,109944
8307,511,7,116277,109940
8309,510,7,116271,109928
8312,510,7,116263,109939
8314,510,7,116266,109944
8317,510,7,116266,109934
8320,510,7,116271,109943
8322,510,7,116271,109934
8325,511,7,116276,109938
8327,511,7,116269,109934
8330,511,7,116270,109940
8332,511,7,116275,109945
8335,511,8,116274,109936
8337,511,7,116281,109936
8340,510,7,116277,109938
8342,510,7,116287,109936
8344,510,7,116291,109939
8347,510,7,116290,109950
8349,510,7,116296,109947
8352,510,7,116305,109952
8354,510,7,116309,109960
8357,509,7,116317,109950
8359,509,7,116322,109960
8361,509,7,116327,109966
8365,509,7,116323,109964
8367,510,7,116332,109966
8370,510,7,116335,109966
8372,510,7,116338,109960
8375,510,7,116338,109954
8377,510,7,116335,109965
8380,510,7,116344,109965
8382,510,7,116352,109969
8384,510,7,116362,109977
8387,510,7,116368,109976
8389,510,7,116374,109977
8392,511,8,116374,109981
8394,511,7,116387,109981
8397,511,7,116387,109981
8399,511,7,116393,109986
8401,511,7,116395,109986
8404,510,7,116423,109999
8407,510,7,116414,109988
8410,510,7,116421,109992
8412,510,7,116417,109985
8415,510,7,116431,110000
8417,510,7,116441,110002
8420,510,7,116441,109999
8422,510,7,116442,110005
8424,511,7,116448,110005
8427,511,7,116454,110007
8429,511,7,116457,110002
8432,511,7,116457,110008
8434,511,7,116466,110012
8437,511,7,116466,110012
8439,511,7,116476,110012
8441,511,7,116476,110018
8444,511,7,116478,110018
8446,511,7,116483,110018
8450,511,7,116496,110026
8452,512,7,116497,110020
8455,512,7,116497,110021
8457,511,7,116503,110029
8460,511,7,116509,110029
8462,510,7,116506,110025
8464,510,7,116506,110026
8467,510,7,116516,110026
8469,510,7,116512,110026
8472,510,7,116534,110031
8474,510,7,116523,110035
8477,510,7,116530,110034
8479,510,7,116530,110032
8481,510,7,116532,110033
8484,511,7,116533,110037
8486,511,7,116537,110037
8489,512,7,116547,110039
8492,512,7,116547,110043
8495,512,7,116547,110045
8497,512,8,116554,110045
8500,511,7,116556,110045
8502,511,7,116556,110050
8504,511,7,116563,110056
8507,511,8,116571,110058
8509,511,7,116571,110054
8512,511,7,116574,110047
8514,511,7,116579,110047
8517,510,7,116587,110060
8519,510,7,116587,110054
8521,510,7,116580,110065
8524,511,7,116591,110065
8526,511,7,116601,110063
8529,511,7,116601,110068
8531,512,7,116603,110068
8535,512,7,116618,110076
8537,512,7,116618,110075
8540,511,7,116618,110080
8542,511,7,116631,110080
8544,510,8,116636,110085
8547,510,7,116636,110084
8549,511,7,116640,110078
8552,511,7,116642,110078
8554,511,7,116650,110091
8557,511,7,116650,110085
8559,511,7,116657,110085
8561,511,8,116658,110091
8564,511,7,116658,110092
8566,510,7,116668,110091
8569,510,8,116673,110091
8571,510,7,116677,110095
8574,510,7,116677,110099
8577,510,7,116679,110107
8580,510,7,116693,110107
8582,510,7,116693,110101
8584,510,7,116696,110108
8587,510,7,116705,110111
8589,509,7,116705,110117
8592,510,7,116701,110110
8594,510,7,116703,110110
8597,510,7,116713,110110
8599,510,7,116724,110114
8601,510,7,116724,110115
8604,510,8,116721,110115
8606,510,8,116721,110112
8609,511,7,116737,110126
8611,511,7,116738,110124
8614,511,7,116738,110124
8616,510,7,116753,110127
8620,509,7,116753,110124
8622,509,7,116762,110124
8624,509,7,116762,110136
8627,509,7,116766,110138
8629,510,7,116772,110144
8632,510,7,116772,110144
8634,510,7,116784,110145
8637,511,7,116786,110145
8639,510,7,116787,110147
8641,510,7,116793,110150
8644,509,8,116797,110157
8646,510,7,116803,110156
8649,510,7,116827,110152
8651,510,8,116827,110161
8654,510,7,116817,110161
8656,509,7,116826,110160
8659,510,7,116846,110165
8662,510,7,116831,110165
8664,510,7,116847,110177
8667,510,7,116845,110168
8669,509,7,116852,110173
8672,509,7,116865,110169
8674,509,7,116859,110174
8677,509,7,116872,110179
8679,509,7,116866,110178
8681,509,7,116870,110184
8684,509,7,116883,110183
8686,509,7,116895,110181
8689,509,7,116893,110182
8691,508,7,116910,110183
8694,508,7,116914,110190
8696,508,7,116918,110188
8699,508,7,116924,110198
8701,508,7,116927,110192
8704,508,7,116929,110202
8707,507,7,116927,110201
8709,507,7,116937,110207
8712,508,7,116938,110210
8714,508,7,116947,110203
8717,508,7,116964,110208
8719,510,7,116966,110205
8721,511,7,116973,110218
8724,513,7,116973,110216
8726,513,7,116983,110220
8729,514,7,116982,110213
8731,514,7,116988,110215
8734,513,7,116988,110219
8736,512,7,116994,110214
8739,511,7,116997,110230
8741,511,7,117004,110220
8743,510,7,117010,110231
8747,510,7,117028,110231
8749,509,7,117030,110232
8752,509,7,117039,110232
8754,509,7,117044,110241
8757,508,7,117044,110245
8759,508,7,117044,110244
8761,508,7,117052,110246
8764,508,7,117051,110245
8766,508,7,117053,110247
8769,508,7,117069,110244
8771,508,7,117082,110250
8774,509,7,117085,110255
8776,509,7,117095,110256
8779,509,7,117088,110256
8781,509,7,117098,110268
8783,508,7,117110,110262
8786,508,7,117105,110272
8788,508,7,117109,110274
8792,508,7,117124,110273
8794,508,7,117129,110270
8797,509,7,117131,110278
8799,509,7,117135,110276
8801,510,7,117146,110280
8804,509,7,117146,110285
8806,509,7,117152,110287
8809,508,7,117161,110292
8811,507,7,117177,110292
8814,503,7,117183,110300
8816,490,7,117182,110296
8819,479,7,117190,110302
8821,466,7,117202,110308
8823,452,7,117199,110304
8826,433,7,117199,110299
8828,408,7,117205,110305
8832,399,7,117216,110314
8834,394,7,117218,110305
8837,401,7,117221,110311
8839,412,7,117239,110317
8841,439,7,117234,110310
8844,507,7,117234,110313
8846,554,7,117243,110318
8849,595,7,117250,110317
8851,645,7,117244,110324
8854,670,7,117254,110325
8856,699,7,117261,110324
8859,699,7,117276,110322
8861,691,7,117274,110330
8863,675,7,117277,110327
8866,657,7,117282,110328
8868,644,7,117289,110327
8871,629,7,117289,110331
8873,605,7,117294,110332
8877,586,7,117298,110332
8879,540,7,117306,110345
8881,527,7,117316,110335
8884,505,7,117320,110346
8886,496,7,117327,110349
8889,490,7,117339,110350
8891,480,8,117343,110350
8894,476,8,117343,110349
8896,472,7,117348,110359
8899,471,7,117355,110359
8901,473,7,117368,110364
8903,475,8,117376,110368
8906,479,7,117372,110365
8908,480,8,117372,110367
8911,482,7,117386,110376
8913,482,7,117385,110376
8916,483,8,117392,110374
8919,484,7,117395,110376
8921,485,7,117395,110375
8924,485,7,117407,110377
8926,486,7,117417,110377
8929,487,8,117413,110384
8931,487,7,117413,110383
8934,487,7,117422,110391
8936,488,7,117431,110391
8939,489,7,117438,110390
8941,490,7,117443,110390
8943,491,7,117443,110384
8946,491,7,117457,110398
8948,491,7,117462,110398
8951,491,8,117477,110404
8953,491,7,117477,110396
8956,491,7,117475,110404
8958,492,7,117480,110404
8961,493,7,117499,110415
8964,493,7,117500,110411
8966,493,7,117500,110420
8969,493,7,117508,110408
8971,494,8,117521,110408
8974,494,7,117531,110417
8976,494,7,117531,110427
8979,495,7,117538,110426
8981,495,7,117554,110426
8983,496,7,117565,110433
8986,497,7,117568,110436
8988,497,8,117572,110436
8991,499,7,117577,110443
8993,499,7,117577,110444
8996,499,7,117592,110447
8998,499,7,117598,110454
9000,499,7,117598,110449
9004,499,7,117627,110449
9006,499,7,117639,110461
9009,500,7,117635,110461
9011,500,7,117635,110466
9014,501,7,117648,110466
9016,501,7,117648,110469
9019,501,7,117656,110470
9021,502,7,117644,110470
9023,501,7,117635,110462
9026,502,7,117624,110455
9028,502,7,117610,110455
9031,503,7,117610,110440
9033,503,7,117585,110431
9036,504,7,117510,110431
9038,503,7,117510,110391
9040,503,8,117475,110375
9043,504,7,117355,110375
9046,504,7,117302,110357
9049,504,7,117302,110312
9051,505,7,117183,110312
9054,505,7,117183,110272
9056,505,7,117116,110249
9059,505,7,116989,110249
9061,505,7,116989,110204
9063,506,7,116940,110186
9066,505,7,116822,110163
9068,505,7,116822,110147
9071,505,7,116763,110133
9073,505,7,116714,110119
9076,505,7,116668,110119
9078,505,7,116588,110104
9080,506,7,116588,110075
9083,506,8,116500,110075
9085,506,7,116471,110065
9089,507,7,116471,110040
9091,506,7,116440,110034
9094,505,7,116417,110034
9096,505,7,116372,110024
9099,505,7,116372,110007
9101,505,7,116324,110007
9103,506,7,116324,109995
9106,506,7,116315,109995
9108,507,7,116303,109980
9111,507,7,116280,109977
9113,508,7,116274,109972
9116,508,8,116265,109972
9118,508,7,116258,109968
9120,509,8,116244,109965
9123,509,7,116252,109969
9125,510,7,116250,109960
9128,510,7,116253,109971
9131,510,7,116253,109967
9134,510,7,116254,109967
9136,510,7,116250,109967
9139,510,7,116250,109970
9141,510,7,116255,109969
9143,510,7,116266,109971
9146,510,7,116275,109968
9148,511,7,116276,109972
9151,511,7,116278,109971
9153,511,7,116292,109978
9156,511,7,116299,109980
9158,512,7,116306,109980
9160,512,7,116320,109979
9163,512,7,116307,109984
9165,513,8,116323,109979
9168,513,7,116330,109987
9170,515,7,116330,109990
9174,515,7,116332,109987
9176,514,7,116336,109984
9179,513,7,116338,109991
9181,512,7,116334,109990
9183,511,7,116334,109993
9186,510,7,116340,109984
9188,509,7,116348,109990
9191,508,7,116332,109991
9193,509,7,116345,109981
9196,508,7,116336,109980
9198,508,7,116335,109978
9200,507,7,116331,109982
9203,507,7,116322,109980
9205,507,7,116316,109971
9208,507,7,116308,109983
9210,507,7,116296,109973
9213,507,7,116288,109974
9216,507,7,116296,109966
9219,507,7,116275,109962
9221,508,7,116271,109960
9223,508,7,116267,109951
9226,510,7,116255,109953
9228,510,7,116245,109947
9231,510,7,116234,109948
9233,510,7,116223,109942
9236,509,7,116208,109937
9238,510,7,116203,109921
9240,510,7,116175,109924
9243,511,7,116180,109919
9245,511,7,116174,109908
9248,511,7,116162,109913
9250,511,7,116153,109907
9253,512,7,116133,109909
9255,512,7,116128,109891
9259,512,7,116121,109894
9261,512,7,116106,109892
9263,512,7,116102,109890
9266,512,7,116102,109884
9268,512,7,116093,109878
9271,512,7,116082,109880
9273,512,7,116081,109877
9276,512,7,116069,109877
9278,512,7,116066,109879
9280,512,7,116069,109874
9283,512,7,116069,109875
9285,513,7,116064,109868
9288,513,7,116064,109873
9290,513,7,116067,109875
9293,512,7,116066,109871
9295,512,7,116077,109878
9298,511,7,116079,109875
9300,511,7,116081,109877
9303,511,7,116091,109874
9306,511,7,116089,109878
9308,512,7,116099,109882
9311,512,7,116101,109888
9313,510,7,116113,109894
9316,510,7,116122,109893
9318,509,7,116128,109900
9320,510,7,116146,109899
9323,509,7,116157,109909
9325,510,7,116154,109913
9328,509,7,116164,109915
9330,510,7,116173,109911
9333,510,7,116189,109917
9335,510,7,116187,109924
9338,510,7,116196,109929
9340,510,7,116208,109933
9342,511,7,116214,109930
9346,511,7,116217,109934
9348,511,7,116219,109935
9351,510,7,116227,109940
9353,511,7,116234,109936
9356,510,7,116234,109939
9358,510,7,116232,109940
9360,510,7,116227,109940
9363,511,7,116237,109942
9365,512,7,116239,109935
9368,512,7,116246,109935
9370,512,7,116237,109941
9373,512,7,116239,109934
9375,512,7,116236,109941
9378,511,7,116236,109942
9380,511,7,116230,109939
9382,511,7,116236,109939
9385,510,8,116237,109941
9388,511,7,116237,109934
9391,511,7,116237,109930
9393,511,7,116232,109923
9396,511,8,116227,109923
9398,511,7,116226,109932
9400,510,7,116226,109931
9403,510,7,116218,109926
9405,510,7,116216,109926
9408,510,7,116223,109933
9410,510,7,116228,109917
9413,510,7,116228,109931
9415,510,7,116214,109924
9418,511,7,116222,109924
9420,510,7,116218,109927
9422,511,7,116218,109922
9425,511,7,116223,109924
9427,511,7,116230,109924
9431,512,7,116236,109929
9433,512,7,116239,109928
9436,512,7,116236,109939
9438,512,7,116236,109933
9440,512,7,116244,109937
9443,511,7,116243,109945
9445,511,7,116247,109945
9448,511,7,116258,109934
9450,511,7,116258,109932
9453,511,7,116256,109941
9455,512,7,116265,109941
9458,511,7,116264,109943
9460,511,7,116264,109947
9462,511,7,116275,109942
9465,511,7,116274,109950
9467,510,7,116274,109952
9470,510,7,116285,109949
9473,511,7,116294,109949
9476,511,7,116305,109956
9478,511,7,116305,109958
9480,511,7,116308,109957
9483,511,7,116316,109957
9485,510,7,116317,109957
9488,510,7,116317,109964
9490,510,7,116321,109964
9493,510,7,116329,109969
9495,510,7,116329,109959
9498,510,7,116332,109970
9500,511,8,116332,109970
9502,510,7,116347,109971
9505,509,7,116347,109968
9507,509,7,116352,109974
9510,510,7,116357,109974
9512,510,7,116372,109977
9516,510,7,116372,109976
9518,510,7,116369,109976
9520,511,7,116374,109983
9523,511,8,116374,109986
9525,511,7,116382,109978
9528,511,7,116388,109978
9530,511,7,116394,109983
9533,511,7,116394,109997
9535,511,7,116402,109996
9538,512,7,116415,109996
9540,511,7,116415,110000
9542,511,7,116425,110004
9545,512,7,116426,110015
9547,512,7,116426,110005
9550,512,7,116437,110005
9552,511,7,116445,110008
9555,511,7,116445,110010
9558,511,7,116450,110006
9560,511,7,116445,110006
9563,511,8,116450,110008
9565,511,7,116452,110018
9568,512,7,116452,110015
9570,512,7,116468,110024
9573,512,7,116465,110024
9575,512,7,116465,110024
9578,512,7,116465,110022
9580,512,7,116476,110025
9582,512,8,116479,110025
9585,511,7,116475,110029
9587,511,7,116477,110032
9590,511,8,116485,110026
9592,511,7,116492,110031
9595,511,7,116494,110029
9597,510,7,116497,110029
9600,510,7,116497,110030
9603,510,7,116506,110035
9605,510,7,116502,110035
9608,510,7,116515,110041
9610,510,7,116518,110043
9613,510,7,116524,110037
9615,510,7,116528,110037
9618,511,8,116537,110045
9620,511,8,116537,110059
9622,511,7,116547,110059
9625,510,7,116543,110054
9627,511,7,116549,110049
9630,511,7,116561,110053
9632,512,7,116569,110057
9635,512,8,116567,110052
9637,512,7,116571,110062
9639,511,7,116563,110061
9643,511,7,116582,110057
9645,510,7,116574,110063
9648,510,7,116585,110067
9650,510,7,116600,110069
9653,510,7,116607,110069
9655,511,7,116602,110069
9658,511,7,116608,110077
9660,511,7,116616,110070
9662,511,7,116612,110065
9665,511,7,116617,110079
9667,511,7,116617,110075
9670,512,7,116626,110081
9672,512,7,116637,110082
9675,512,7,116644,110084
9677,511,7,116651,110086
9679,511,7,116656,110089
9682,510,7,116661,110095
9684,510,7,116665,110092
9688,509,7,116661,110092
9690,509,7,116670,110094
9693,509,7,116674,110098
9695,509,7,116678,110102
9698,510,7,116689,110106
9700,510,7,116690,110102
9702,510,7,116697,110099
9705,510,7,116703,110108
9707,509,7,116711,110105
9710,509,7,116714,110111
9712,509,7,116709,110110
9715,510,7,116718,110117
9717,510,7,116720,110120
9719,510,7,116720,110120
9722,510,7,116732,110123
9724,510,7,116734,110123
9728,510,7,116746,110123
9730,511,7,116758,110131
9733,511,7,116758,110133
9735,511,7,116766,110134
9738,511,7,116767,110130
9740,511,7,116772,110145
9742,510,7,116782,110138
9745,510,7,116775,110139
9747,511,7,116787,110147
9750,511,7,116795,110141
9752,511,7,116794,110151
9755,510,7,116798,110153
9757,510,7,116807,110156
9759,510,7,116813,110158
9762,510,7,116811,110152
9764,510,7,116822,110157
9767,510,7,116822,110163
9769,510,7,116832,110159
9773,510,7,116837,110164
9775,510,7,116847,110167
9778,510,8,116854,110171
9780,509,7,116858,110177
9782,508,7,116866,110176
9785,508,7,116867,110180
9787,508,7,116865,110182
9790,508,7,116872,110182
9792,508,7,116885,110183
9795,508,7,116887,110186
9797,508,7,116897,110181
9799,507,7,116903,110184
9802,507,7,116907,110197
9804,507,7,116907,110195
9807,507,7,116908,110196
9809,507,7,116921,110193
9812,507,7,116931,110200
9815,507,7,116932,110204
9818,507,7,116936,110204
9820,507,7,116953,110203
9822,507,7,116943,110210
9825,508,7,116958,110207
9827,510,7,116966,110206
9830,513,7,116966,110210
9832,514,7,116978,110206
9835,514,7,116978,110219
9837,514,7,116980,110216
9839,514,7,116990,110216
9842,513,7,116997,110224
9844,513,7,117006,110219
9847,512,7,117010,110223
9849,511,7,117019,110236
9852,510,7,117021,110235
9854,509,7,117036,110237
9858,508,7,117036,110240
9860,508,7,117041,110234
9862,508,7,117047,110234
9865,507,7,117056,110244
9867,508,7,117062,110243
9870,508,7,117062,110244
9872,508,7,117071,110241
9875,509,8,117074,110241
9877,509,7,117076,110247
9879,509,8,117076,110246
9882,509,7,117083,110255
9884,509,7,117088,110255
9887,509,7,117102,110265
9889,509,7,117108,110257
9892,509,7,117108,110265
9894,509,7,117123,110261
9897,509,7,117125,110261
9900,508,7,117129,110263
9902,508,7,117129,110273
9905,508,7,117142,110271
9907,509,7,117147,110271
9910,509,7,117163,110274
9912,509,7,117162,110278
9915,509,7,117167,110283
9917,506,7,117167,110285
9919,501,7,117172,110287
9922,491,7,117181,110289
9924,484,7,117187,110289
9927,460,7,117200,110290
9929,447,7,117200,110303
9932,428,7,117213,110299
9934,415,7,117223,110299
9937,402,7,117221,110307
9939,396,7,117221,110308
9942,404,7,117222,110307
9945,423,7,117237,110313
9947,450,7,117237,110318
9950,495,7,117257,110317
9952,532,7,117255,110317
9955,572,7,117267,110315
9957,648,7,117267,110324
9959,679,7,117270,110329
9962,695,7,117286,110329
9964,698,7,117292,110329
9967,683,8,117292,110331
9969,674,8,117299,110331
9972,661,8,117313,110344
9974,641,8,117313,110339
9977,621,8,117319,110342
9979,605,8,117323,110342
9981,583,8,117328,110348
9985,542,7,117328,110344
9987,521,7,117335,110348
9990,509,8,117344,110348
9992,499,8,117351,110350
9995,488,7,117351,110353
9997,484,7,117358,110353
9999,478,8,117359,110361
10002,472,7,117359,110368
10004,471,7,117370,110362
10007,472,7,117380,110362
10009,473,7,117375,110356
10012,477,7,117375,110362
10014,479,7,117384,110365
10017,480,7,117392,110365
10019,481,7,117392,110371
10021,481,7,117395,110376
10024,482,7,117407,110379
10027,482,8,117407,110369
10030,482,7,117416,110383
10032,483,7,117421,110371
10035,483,7,117419,110371
10037,483,7,117438,110385
10039,484,7,117438,110385
10042,485,7,117435,110385
10044,486,8,117444,110391
10047,486,7,117444,110391
10049,487,7,117453,110391
10052,488,8,117464,110394
10054,488,7,117473,110403
10057,489,8,117473,110404
10059,489,7,117487,110413
10061,489,7,117480,110413
10064,489,7,117484,110411
10066,489,7,117504,110419
10070,489,7,117506,110405
10072,490,7,117520,110411
10075,491,7,117524,110421
10077,491,7,117528,110422
10079,491,7,117528,110419
10082,492,7,117544,110434
10084,493,7,117550,110434
10087,493,7,117560,110431
10089,494,7,117560,110425
10092,494,7,117575,110438
10094,495,7,117586,110438
10097,495,7,117601,110436
10099,496,7,117607,110449
10101,496,7,117607,110453
10104,496,7,117609,110453
10106,496,7,117623,110453
10109,496,7,117637,110459
10112,497,7,117641,110451
10115,497,7,117642,110464
10117,497,7,117659,110464
10119,497,7,117661,110464
10122,498,7,117668,110471
10124,498,7,117667,110463
10127,498,7,117668,110463
10129,499,7,117663,110467
10132,499,7,117656,110469
10134,499,7,117651,110459
10137,499,7,117628,110457
10139,500,7,117608,110443
10141,500,7,117579,110432
10144,500,7,117532,110416
10146,501,7,117489,110395
10149,501,7,117435,110380
10151,501,7,117378,110360
10155,501,7,117314,110341
10157,501,7,117256,110315
10159,501,7,117197,110293
10162,502,7,117132,110276
10164,502,7,117077,110256
10167,502,7,117008,110231
10169,502,7,116953,110212
10172,502,7,116883,110187
10174,502,7,116822,110167
10177,501,7,116775,110151
10179,502,7,116722,110124
10181,501,7,116675,110111
10184,502,7,116638,110093
10186,502,7,116586,110079
10189,503,7,116551,110063
10191,503,7,116511,110054
10194,503,7,116474,110041
10196,502,7,116441,110032
10199,502,7,116412,110022
10202,502,7,116386,110012
10204,502,7,116355,110011
10207,502,7,116342,109994
10209,502,7,116332,109993
10212,503,7,116315,109993
10214,504,7,116305,109976
10217,504,7,116287,109973
10219,505,7,116266,109967
10221,505,7,116266,109963
10224,505,7,116255,109964
10226,506,7,116249,109957
10229,506,7,116247,109956
10231,505,7,116246,109960
10234,506,7,116248,109961
10236,506,7,116253,109962
10238,506,7,116250,109960
10242,507,7,116259,109966
10244,507,7,116261,109970
10247,507,7,116265,109966
10249,507,7,116263,109970
10252,507,7,116268,109969
10254,507,7,116277,109968
10257,507,7,116293,109976
10259,507,7,116292,109973
10261,508,7,116305,109980
10264,508,7,116308,109980
10266,508,7,116309,109986
10269,508,7,116323,109988
10271,508,7,116326,109987
10274,508,7,116328,109989
10276,508,7,116335,109992
10278,508,7,116343,109989
10281,508,7,116342,109995
10284,508,7,116349,109993
10287,507,7,116340,109994
10289,507,7,116356,109991
10292,506,7,116361,109993
10294,506,7,116350,109996
10297,506,7,116359,109996
10299,505,7,116364,110003
10301,505,7,116365,109986
10304,504,7,116365,109994
10306,504,7,116360,109977
10309,503,7,116347,109982
10311,502,7,116348,109982
10314,501,7,116348,109980
10316,501,7,116337,109984
10318,502,7,116325,109984
10321,502,7,116325,109973
10323,502,7,116311,109962
10327,502,7,116308,109969
10329,502,7,116293,109962
10332,503,7,116283,109956
10334,503,7,116279,109947
10337,503,7,116279,109951
10339,504,7,116267,109948
10341,504,7,116250,109948
10344,504,7,116248,109941
10346,504,7,116234,109930
10349,504,7,116234,109929
10351,504,7,116217,109921
10354,505,7,116213,109921
10356,505,7,116207,109927
10358,505,7,116207,109918
10361,506,7,116186,109913
10363,507,7,116172,109913
10366,507,7,116169,109919
10369,507,7,116159,109902
10372,507,7,116159,109909
10374,507,7,116154,109901
10377,507,7,116149,109901
10379,507,7,116146,109893
10381,506,7,116146,109899
10384,506,7,116135,109899
10386,506,7,116140,109899
10389,506,7,116152,109902
10391,506,7,116146,109895
10394,506,7,116138,109902
10396,506,7,116138,109892
10398,506,7,116150,109902
10401,506,7,116145,109899
10403,506,7,116154,109899
10406,506,7,116161,109906
10408,505,7,116161,109907
10412,505,7,116167,109911
10414,506,7,116180,109911
10417,505,7,116192,109913
10419,505,7,116192,109923
10421,505,7,116199,109922
10424,505,7,116215,109924
10426,505,7,116215,109935
10429,506,7,116234,109933
10431,506,7,116246,109933
10434,506,7,116259,109941
10436,506,7,116259,109942
10438,507,7,116261,109948
10441,507,7,116280,109944
10443,507,7,116285,109944
10446,507,7,116285,109945
10448,507,7,116296,109945
10451,506,7,116298,109955
10454,507,7,116298,109954
10457,507,7,116306,109959
10459,507,7,116314,109959
10461,506,7,116315,109962
10464,506,7,116321,109958
10466,506,7,116321,109958
10469,506,7,116321,109966
10471,506,7,116325,109966
10474,506,7,116320,109966
10476,505,7,116320,109966
10478,505,7,116331,109962
10481,506,7,116325,109962
10483,506,7,116331,109958
10486,507,7,116331,109956
10488,507,7,116322,109957
10491,507,7,116318,109957
10493,507,7,116322,109957
10497,507,7,116322,109958
10499,507,7,116288,109958
10501,506,7,116323,109962
10504,506,7,116323,109964
10506,506,7,116301,109967
10509,506,7,116323,109967
10511,506,7,116321,109963
10514,506,7,116321,109965
10516,506,7,116320,109955
10518,506,7,116318,109955
10521,506,7,116333,109960
10523,506,7,116324,109962
10526,506,7,116324,109957
10528,506,7,116334,109964
10531,507,7,116324,109964
10533,507,7,116328,109971
10536,507,7,116328,109961
10539,506,7,116336,109967
10541,506,7,116335,109967
10544,505,7,116333,109961
10546,506,7,116339,109967
10549,506,7,116343,109968
10551,507,7,116348,109967
10554,507,7,116349,109975
10556,506,7,116353,109976
10558,507,7,116353,109977
10561,506,7,116361,109975
10563,507,7,116362,109975
10566,507,7,116360,109978
10568,507,7,116365,109983
10571,507,7,116370,109981
10573,507,7,116379,109980
10576,507,7,116385,109975
10578,507,7,116395,109993
10580,507,7,116395,109989
10584,507,8,116390,109989
10586,507,7,116396,109992
10589,507,7,116412,109988
10591,507,7,116410,109992
10594,507,7,116418,109997
10596,506,7,116418,109994
10598,506,7,116427,109996
10601,505,7,116439,110003
10603,505,7,116435,109999
10606,505,7,116447,110007
10608,506,7,116436,110003
10611,506,7,116446,110008
10613,506,7,116459,110009
10616,506,7,116459,110012
10618,506,7,116474,110010
10620,506,7,116473,110013
10624,507,7,116477,110015
10626,507,7,116490,110018
10629,507,7,116492,110020
10631,507,7,116485,110026
10634,507,7,116496,110028
10636,507,7,116501,110026
10638,507,7,116510,110024
10641,508,7,116518,110026
10643,507,7,116521,110024
10646,507,7,116519,110027
10648,506,7,116523,110035
10651,506,7,116523,110038
10653,506,7,116527,110033
10656,506,7,116532,110039
10658,506,7,116538,110034
10660,506,7,116542,110043
10663,507,7,116551,110040
10665,507,7,116555,110035
10669,507,7,116557,110040
10671,506,7,116553,110043
10674,506,7,116559,110044
10676,506,7,116562,110048
10678,506,7,116565,110050
10681,506,7,116567,110047
10683,506,7,116576,110050
10686,506,7,116577,110056
10688,506,7,116586,110052
10691,506,8,116590,110054
10693,507,7,116592,110053
10696,507,7,116592,110056
10698,507,7,116600,110063
10700,507,7,116601,110067
10703,507,7,116607,110064
10705,507,7,116607,110060
10708,507,7,116608,110068
10711,507,7,116611,110069
10714,507,7,116619,110066
10716,507,7,116627,110075
10718,508,7,116623,110072
10721,508,7,116631,110076
10723,507,7,116635,110078
10726,507,7,116639,110081
10728,507,7,116645,110082
10731,507,7,116643,110080
10733,506,7,116652,110074
10736,507,7,116661,110081
10738,506,7,116667,110091
10740,506,7,116672,110091
10743,506,7,116673,110095
10745,506,7,116674,110091
10748,506,7,116670,110096
10750,507,7,116683,110097
10754,507,7,116685,110092
10756,507,7,116691,110104
10758,507,7,116700,110104
10761,507,7,116704,110109
10763,507,7,116700,110106
10766,507,7,116697,110084
10768,508,7,116704,110105
10771,508,7,116713,110107
10773,508,7,116725,110111
10776,507,7,116717,110113
10778,507,7,116734,110117
10780,507,7,116736,110117
10783,507,7,116729,110121
10785,507,7,116740,110119
10788,507,7,116743,110119
10790,508,7,116752,110112
10793,508,7,116752,110121
10796,508,7,116756,110126
10798,508,7,116761,110126
10801,508,7,116770,110131
10803,507,7,116775,110131
10806,507,7,116784,110128
10808,507,7,116777,110130
10811,507,7,116781,110136
10813,507,7,116783,110134
10816,507,7,116783,110134
10818,507,7,116799,110132
10820,507,7,116798,110132
10823,507,7,116816,110143
10825,507,7,116811,110143
10828,507,7,116811,110146
10830,507,7,116811,110145
10833,508,7,116822,110145
10835,508,7,116829,110146
10838,508,7,116829,110149
10841,507,7,116834,110153
10843,508,7,116830,110153
10846,508,7,116845,110156
10848,508,7,116850,110158
10851,508,7,116850,110159
10853,507,7,116865,110162
10856,508,7,116870,110162
10858,508,7,116875,110165
10860,507,7,116875,110166
10863,507,7,116878,110171
10865,506,7,116882,110171
10868,506,7,116894,110179
10870,506,7,116899,110171
10873,506,7,116899,110177
10875,506,7,116899,110177
10877,506,7,116908,110183
10881,506,7,116914,110186
10883,506,7,116928,110186
10886,507,7,116934,110188
10888,507,7,116934,110200
10891,506,7,116942,110197
10893,506,7,116950,110197
10896,505,8,116953,110195
10898,504,7,116953,110199
10900,505,7,116961,110201
10903,505,7,116968,110202
10905,507,7,116968,110204
10908,509,7,116979,110211
10910,511,7,116988,110211
10913,512,7,117002,110207
10915,513,7,117002,110208
10917,513,7,117006,110224
10920,513,7,117010,110224
10923,513,7,117028,110214
10926,512,7,117026,110220
10928,511,7,117025,110220
10931,510,7,117036,110229
10933,508,7,117036,110233
10936,507,7,117046,110235
10938,506,7,117056,110243
10940,506,7,117056,110236
10943,505,7,117072,110236
10945,505,7,117070,110239
10948,505,7,117081,110238
10950,506,7,117081,110245
10953,506,7,117093,110250
10955,507,7,117100,110250
10957,507,7,117108,110246
10960,507,7,117108,110254
10962,507,7,117106,110262
10966,507,7,117115,110262
10968,507,7,117134,110261
10971,507,7,117134,110258
10973,507,8,117127,110258
10976,507,7,117127,110263
10978,507,7,117143,110270
10980,508,7,117145,110270
10983,508,7,117162,110270
10985,508,7,117170,110283
10988,509,7,117170,110280
10990,508,7,117177,110285
10993,508,7,117184,110285
10995,507,7,117189,110286
10997,506,7,117195,110290
11000,499,7,117195,110287
11002,490,7,117199,110295
11005,481,7,117207,110295
11008,471,7,117217,110300
11011,445,7,117217,110306
11013,426,7,117216,110302
11016,413,7,117225,110302
11018,401,7,117238,110306
11020,396,7,117251,110308
11023,403,7,117251,110310
11025,418,7,117262,110310
11028,442,7,117261,110316
11030,472,7,117274,110319
11033,515,7,117274,110317
11035,610,7,117278,110323
11037,643,7,117281,110323
11040,673,7,117287,110328
11042,689,7,117297,110331
11045,698,7,117301,110339
11047,686,8,117309,110329
11051,671,8,117321,110325
11053,660,8,117318,110338
11056,650,8,117318,110337
11058,622,7,117333,110337
11060,602,7,117336,110340
11063,579,8,117327,110341
11065,558,8,117344,110346
11068,535,7,117345,110340
11070,506,8,117355,110349
11073,496,7,117356,110350
11075,489,7,117366,110349
11077,483,7,117364,110354
11080,478,8,117367,110354
11082,471,7,117372,110355
11085,470,7,117373,110354
11087,471,8,117389,110356
11090,473,8,117395,110362
11092,477,7,117396,110358
11096,478,7,117402,110358
11098,479,7,117400,110365
11100,480,7,117407,110369
11103,481,7,117412,110372
11105,482,7,117409,110365
11108,483,7,117415,110372
11110,484,7,117419,110373
11113,485,7,117439,110378
11115,486,7,117434,110383
11117,487,7,117444,110379
11120,488,7,117447,110381
11122,488,7,117455,110379
11125,488,7,117453,110377
11127,488,7,117455,110380
11130,487,7,117464,110387
11132,487,7,117467,110389
11136,488,7,117468,110396
11138,489,7,117474,110390
11140,490,7,117488,110397
11143,491,7,117503,110403
11145,492,7,117503,110402
11148,492,7,117509,110398
11150,493,7,117520,110410
11153,492,7,117526,110412
11155,492,7,117531,110414
11157,492,7,117541,110414
11160,492,7,117538,110417
11162,492,7,117547,110434
11165,492,7,117569,110427
11167,493,7,117575,110433
11170,494,7,117586,110429
11172,495,7,117588,110437
11175,495,7,117599,110439
11177,496,7,117602,110439
11180,496,7,117606,110438
11183,497,7,117608,110442
11185,497,7,117624,110449
11188,498,7,117627,110453
11190,498,7,117639,110456
11193,499,7,117651,110455
11195,499,7,117651,110459
11197,500,7,117659,110456
11200,501,7,117660,110467
11202,501,7,117668,110464
11205,501,7,117670,110462
11207,502,7,117662,110467
11210,502,7,117660,110465
11212,501,7,117650,110458
11215,501,7,117644,110455
11217,501,7,117624,110446
11219,500,7,117597,110436
11223,500,7,117556,110426
11225,501,7,117523,110417
11228,501,7,117480,110394
11230,501,7,117428,110376
11233,501,7,117375,110357
11235,502,7,117319,110336
11237,502,7,117264,110315
11240,502,7,117199,110300
11242,503,7,117129,110251
11245,504,7,117073,110254
11247,504,7,117013,110230
11250,504,7,116950,110212
11252,503,7,116892,110188
11255,503,7,116843,110164
11257,503,7,116788,110157
11259,504,7,116737,110129
11262,504,7,116690,110118
11265,504,7,116646,110103
11268,504,7,116608,110094
11270,504,7,116581,110080
11273,504,7,116581,110063
11275,504,7,116494,110048
11277,504,7,116463,110048
11280,504,7,116442,110033
11282,505,7,116424,110019
11285,505,7,116410,110013
11287,505,7,116371,110005
11290,505,7,116360,110002
11292,505,7,116348,109988
11295,505,7,116348,109986
11297,506,7,116319,109983
11299,506,7,116312,109983
11302,506,7,116312,109982
11304,506,7,116300,109969
11308,507,7,116300,109966
11310,507,7,116287,109966
11313,507,7,116284,109966
11315,508,7,116286,109966
11317,508,7,116286,109963
11320,508,7,116291,109964
11322,508,7,116287,109964
11325,508,7,116295,109967
11327,509,7,116293,109961
11330,509,7,116293,109975
11332,509,7,116307,109976
11335,509,7,116322,109976
11337,510,7,116317,109977
11339,510,7,116317,109979
11342,510,7,116331,109980
11344,511,7,116335,109980
11347,511,7,116348,109982
11350,512,7,116352,109986
11353,512,7,116354,109989
11355,512,7,116354,109985
11357,512,7,116362,109995
11360,511,7,116366,109993
