TimeStamp,ECG Data,GSR Data,PPG_Red Data,PPG_IR Data
256609,510,847,126843,116542
256612,507,847,126864,116553
256614,505,847,126864,116559
256607,510,846,126838,116542
256609,510,847,126843,116542
256612,507,847,126864,116553
256614,505,847,126864,116559
6,509,87,0,0
8,512,87,57543,57585
11,514,87,73970,73946
13,515,87,90332,90308
15,517,87,106704,106723
18,518,87,123081,116854
20,519,88,127662,116841
23,519,88,127656,116835
25,519,88,127653,116836
28,518,88,127649,116835
30,519,89,127646,116831
33,519,89,127634,116830
35,520,89,127625,116833
37,520,89,127625,116826
40,521,89,127623,116824
43,523,89,127623,116823
46,524,90,127623,116828
48,524,90,127615,116818
51,524,90,127624,116821
53,522,90,127616,116832
55,520,90,127626,116828
58,519,90,127641,116839
60,518,91,127644,116836
63,517,91,127650,116841
65,517,91,127658,116843
68,516,91,127660,116845
70,517,91,127667,116848
73,516,91,127682,116845
75,513,91,127676,116854
77,511,92,127690,116858
80,510,91,127709,116871
82,509,91,127720,116868
86,507,91,127729,116870
88,506,92,127747,116875
91,506,92,127747,116891
93,506,92,127760,116886
95,505,92,127783,116902
98,505,92,127787,116903
100,505,92,127802,116907
103,506,92,127828,116911
105,505,92,127837,116920
108,506,92,127869,116934
110,506,92,127880,116936
113,506,92,127880,116949
115,506,92,127904,116951
117,506,92,127933,116962
120,505,93,127943,116963
122,505,93,127964,116984
125,505,93,127981,116987
128,505,93,128003,116995
131,505,93,128018,117003
133,506,93,128042,117011
135,506,93,128068,117020
138,507,93,128086,117024
140,507,93,128103,117044
143,507,93,128128,117049
145,507,93,128145,117056
148,508,93,128169,117062
150,507,93,128203,117075
153,507,93,128218,117081
155,505,93,128246,117094
157,503,93,128260,117111
160,499,94,128289,117109
162,493,93,128303,117103
165,485,94,128329,117132
167,481,94,128354,117149
171,482,94,128378,117154
173,495,94,128397,117158
175,507,94,128415,117162
178,520,94,128435,117174
180,540,94,128455,117185
183,577,94,128486,117194
185,601,94,128518,117205
188,627,94,128535,117214
190,648,94,128560,117219
193,676,94,128572,117202
195,718,95,128589,117236
197,742,95,128622,117245
200,759,95,128639,117253
202,774,95,128657,117258
205,777,95,128672,117264
207,751,95,128700,117278
210,732,95,128721,117281
212,673,95,128733,117296
215,637,95,128733,117309
218,588,95,128772,117310
220,532,95,128790,117315
223,503,95,128816,117320
225,471,95,128831,117331
228,452,95,128841,117336
230,429,95,128870,117350
233,424,95,128870,117354
235,423,95,128896,117366
237,424,95,128915,117366
240,431,95,128938,117379
242,436,95,128961,117377
245,440,95,128961,117391
247,446,95,128985,117399
250,450,95,128999,117399
252,456,95,129024,117416
254,458,95,129038,117418
258,462,95,129051,117421
260,463,95,129051,117423
263,465,95,129081,117433
265,468,95,129099,117443
268,469,95,129099,117438
270,471,95,129121,117446
273,472,95,129133,117446
275,475,95,129147,117463
277,476,95,129147,117462
280,478,95,129176,117462
282,479,95,129185,117462
285,480,95,129200,117475
287,483,95,129203,117474
290,484,95,129217,117498
292,486,95,129217,117490
294,487,95,129232,117502
297,487,95,129246,117499
300,488,95,129263,117499
303,490,95,129272,117513
305,491,95,129272,117521
308,492,95,129293,117519
310,493,95,129298,117519
313,494,95,129320,117526
315,496,95,129331,117530
317,496,95,129331,117538
320,497,95,129349,117546
322,498,95,129359,117546
325,499,95,129366,117546
327,500,95,129366,117550
330,501,95,129367,117555
332,502,95,129389,117555
334,503,95,129408,117560
337,506,95,129405,117562
339,508,95,129405,117570
343,508,95,129423,117570
345,510,95,129430,117576
348,510,95,129440,117575
350,510,95,129440,117582
353,511,95,129450,117584
355,512,95,129462,117584
357,513,95,129480,117593
360,515,95,129485,117599
362,515,95,129488,117599
365,518,95,129488,117605
367,519,95,129506,117612
370,520,95,129521,117612
372,522,95,129521,117615
374,523,95,129536,117624
377,524,95,129539,117624
379,525,95,129529,117626
382,528,95,129572,117634
385,529,95,129583,117634
388,532,95,129583,117638
390,534,95,129588,117639
393,536,95,129597,117639
395,538,95,129597,117650
397,540,95,129613,117656
400,541,96,129620,117656
402,542,95,129626,117657
405,544,95,129626,117669
407,546,96,129629,117652
410,548,96,129628,117652
412,549,95,129623,117649
414,552,96,129623,117637
417,553,96,129581,117637
419,555,96,129548,117638
422,556,96,129548,117588
424,556,96,129516,117569
428,557,96,129409,117569
430,557,96,129339,117542
433,558,96,129339,117472
435,558,96,129258,117428
437,558,96,129156,117428
440,557,96,128945,117383
442,557,96,128815,117343
445,555,96,128815,117224
447,553,96,128691,117163
450,552,96,128390,117163
452,549,96,128255,117107
454,547,96,128255,116996
457,540,96,128109,116944
459,537,96,127985,116944
462,533,96,127876,116898
464,528,96,127767,116848
467,525,96,127668,116815
470,517,96,127584,116785
473,512,96,127441,116760
475,507,96,127369,116731
477,502,96,127369,116684
480,494,96,127298,116657
482,490,96,127253,116657
485,486,96,127193,116630
487,482,96,127146,116613
490,479,96,127095,116596
492,476,96,127057,116579
494,473,96,127016,116562
497,471,96,126980,116548
499,466,96,126948,116540
502,464,96,126920,116530
504,463,96,126891,116512
507,462,96,126873,116508
509,460,96,126852,116501
513,459,95,126842,116493
515,458,96,126810,116485
517,458,96,126804,116486
520,457,96,126785,116474
522,457,96,126779,116473
525,457,96,126764,116471
527,458,96,126761,116462
530,459,96,126753,116467
532,460,96,126748,116472
534,461,95,126764,116467
537,464,96,126766,116470
539,465,96,126757,116473
542,465,96,126756,116474
544,466,95,126774,116486
547,467,95,126784,116486
549,468,95,126794,116488
552,469,96,126797,116501
555,471,96,126806,116495
557,471,95,126820,116499
560,473,96,126832,116509
562,474,95,126837,116520
565,475,96,126874,116525
567,476,96,126886,116530
570,476,96,126903,116545
572,477,95,126914,116551
574,478,95,126939,116553
577,479,95,126956,116560
579,479,95,126971,116570
582,480,96,126984,116581
584,481,96,127022,116590
587,482,95,127037,116600
589,484,96,127061,116613
592,484,95,127071,116621
594,485,96,127103,116619
596,486,95,127117,116636
600,487,95,127148,116641
602,488,95,127162,116651
605,490,95,127184,116661
607,491,95,127217,116678
610,492,95,127231,116680
612,492,95,127264,116696
614,492,96,127277,116704
617,492,95,127298,116708
619,492,95,127314,116723
622,492,95,127339,116727
624,493,95,127360,116742
627,494,96,127387,116749
629,495,95,127401,116758
632,495,96,127431,116755
634,496,96,127446,116772
636,497,95,127470,116777
640,497,95,127483,116785
642,498,95,127506,116791
645,498,96,127525,116802
647,498,95,127551,116816
650,499,96,127562,116824
652,499,96,127591,116837
654,499,96,127615,116841
657,499,96,127639,116854
659,499,96,127663,116862
662,499,95,127684,116868
664,500,95,127715,116882
667,500,96,127734,116890
669,500,96,127757,116899
672,500,96,127789,116909
674,500,96,127818,116921
676,500,96,127829,116931
679,501,96,127855,116943
681,502,96,127884,116945
685,502,96,127901,116956
687,503,95,127926,116957
690,503,96,127944,116963
692,503,96,127957,116972
694,502,96,127971,116980
697,502,96,127991,116982
699,502,96,128000,116993
702,502,96,128008,116995
704,503,96,128013,116994
707,503,96,128013,116994
709,503,96,128032,116995
712,504,96,128024,116995
714,504,96,128034,117003
716,504,96,128024,116995
719,503,96,128024,116997
721,504,96,128014,116988
724,504,96,128015,116993
727,505,96,128011,116983
730,506,96,128011,116984
732,506,96,127979,116974
734,506,96,127971,116974
737,506,96,127956,116960
739,506,96,127940,116957
742,507,96,127931,116947
744,507,96,127931,116942
747,508,96,127895,116939
749,510,96,127876,116924
752,511,96,127876,116918
754,513,96,127842,116918
756,514,96,127838,116918
759,515,96,127825,116911
761,515,96,127825,116899
764,515,95,127802,116891
766,515,96,127781,116891
770,514,96,127767,116887
772,515,96,127754,116876
774,515,96,127754,116875
777,516,96,127730,116872
779,518,96,127720,116872
782,518,96,127718,116863
784,520,96,127718,116863
787,520,96,127709,116855
789,521,95,127690,116855
792,520,96,127693,116850
794,519,96,127693,116845
796,518,95,127693,116851
799,517,95,127677,116849
801,517,96,127674,116849
804,516,96,127681,116853
806,515,96,127681,116854
809,515,96,127672,116847
812,514,96,127675,116847
814,513,96,127681,116853
817,511,95,127685,116852
819,510,96,127685,116852
822,508,96,127689,116856
824,505,96,127689,116859
827,504,95,127697,116857
829,504,96,127707,116857
832,504,96,127715,116863
834,504,96,127715,116873
836,504,96,127726,116882
839,504,96,127753,116882
841,504,96,127768,116878
844,504,96,127771,116895
846,503,95,127771,116898
849,503,95,127802,116908
851,503,95,127826,116908
854,503,96,127832,116917
857,504,96,127832,116922
859,504,95,127848,116933
862,505,95,127877,116933
864,505,95,127901,116938
867,504,95,127901,116956
869,504,96,127936,116956
872,504,95,127958,116966
874,504,95,127958,116972
876,504,95,127977,116989
879,504,96,128013,116989
881,505,95,128032,116997
884,506,95,128032,117018
886,506,95,128057,117016
889,506,95,128087,117016
891,506,95,128115,117028
893,506,95,128120,117041
897,505,95,128120,117052
899,502,95,128147,117062
902,498,95,128196,117062
904,493,95,128211,117072
907,484,95,128211,117085
909,482,95,128239,117098
912,485,95,128251,117098
914,493,95,128304,117105
916,502,95,128323,117115
919,530,95,128323,117127
921,551,95,128339,117136
924,569,95,128387,117136
926,589,95,128403,117152
929,614,95,128403,117168
931,665,95,128435,117177
933,686,95,128451,117177
936,709,95,128468,117183
939,730,95,128482,117192
942,751,96,128513,117203
944,773,96,128539,117206
947,769,96,128580,117217
949,756,96,128592,117228
952,731,96,128592,117241
954,656,96,128620,117252
956,621,96,128635,117252
959,579,96,128653,117260
961,540,95,128666,117264
964,510,96,128696,117275
966,460,96,128708,117283
969,442,95,128746,117289
971,431,95,128764,117311
973,426,95,128764,117306
976,423,95,128787,117306
978,423,95,128795,117325
982,427,95,128811,117326
984,437,95,128836,117330
987,441,95,128849,117335
989,446,95,128869,117345
992,450,95,128882,117356
994,458,95,128906,117358
996,461,95,128923,117365
999,462,95,128928,117376
1001,464,95,128943,117375
1004,466,95,128960,117380
1006,470,95,128973,117380
1009,471,95,128989,117385
1011,473,95,128996,117394
1013,474,95,129018,117401
1016,475,95,129020,117404
1018,477,95,129039,117415
1021,478,95,129043,117417
1024,479,95,129068,117430
1027,480,95,129068,117430
1029,482,95,129089,117431
1032,484,95,129094,117435
1034,487,95,129107,117437
1036,488,95,129113,117439
1039,489,95,129131,117444
1041,490,95,129141,117456
1044,491,95,129167,117459
1046,493,95,129164,117461
1049,495,95,129170,117473
1051,496,95,129187,117467
1053,497,95,129199,117475
1056,498,95,129193,117484
1058,498,95,129200,117487
1061,499,95,129205,117479
1063,500,95,129230,117487
1067,502,95,129235,117489
1069,503,95,129253,117497
1072,504,95,129253,117503
1074,505,95,129260,117509
1076,505,95,129282,117506
1079,506,94,129285,117511
1081,508,95,129290,117511
1084,509,95,129294,117519
1086,510,95,129314,117523
1089,511,94,129316,117532
1091,511,94,129329,117533
1093,512,94,129335,117534
1096,514,94,129341,117537
1098,515,95,129353,117543
1101,516,94,129370,117544
1103,517,94,129368,117553
1106,518,94,129383,117560
1108,521,94,129389,117557
1112,522,94,129400,117563
1114,522,95,129402,117568
1116,523,94,129422,117570
1119,524,95,129420,117574
1121,527,94,129430,117572
1124,528,94,129446,117586
1126,531,95,129449,117582
1129,534,94,129457,117593
1131,535,95,129475,117591
1133,536,94,129478,117596
1136,538,95,129481,117598
1138,539,94,129494,117595
1141,540,95,129492,117607
1143,542,95,129502,117605
1146,544,94,129501,117602
1148,548,94,129505,117608
1152,550,94,129499,117596
1154,551,94,129492,117595
1156,552,95,129477,117589
1159,555,95,129457,117576
1161,556,94,129436,117554
1164,557,94,129436,117536
1166,558,94,129346,117511
1169,558,95,129288,117511
1171,559,94,129216,117459
1173,559,94,129133,117403
1176,559,95,129034,117369
1178,558,94,128936,117325
1181,557,94,128820,117274
1183,557,94,128687,117217
1186,557,95,128548,117158
1188,556,95,128408,117104
1191,555,94,128408,117053
1193,553,94,128137,116996
1196,548,95,128014,116947
1199,544,95,127899,116890
1201,538,94,127783,116857
1204,533,95,127689,116820
1206,522,94,127596,116773
1209,518,94,127596,116746
1211,514,94,127434,116707
1213,511,94,127367,116707
1216,502,94,127311,116673
1218,499,94,127255,116644
1221,492,94,127199,116618
1223,488,94,127199,116598
1226,483,94,127092,116575
1228,478,94,127048,116560
1231,476,94,127048,116548
1233,472,94,126963,116532
1235,471,94,126931,116532
1239,466,94,126901,116510
1241,465,94,126901,116489
1244,463,94,126871,116485
1246,462,94,126823,116485
1249,461,94,126797,116473
1251,460,94,126778,116454
1253,460,94,126778,116454
1256,461,94,126734,116442
1258,461,94,126731,116442
1261,461,94,126723,116443
1263,461,94,126723,116442
1266,461,94,126710,116436
1268,462,94,126706,116436
1271,463,94,126705,116435
1273,464,94,126699,116424
1275,465,94,126699,116436
1278,466,94,126708,116440
1281,468,94,126711,116440
1284,468,94,126720,116451
1286,468,94,126720,116448
1289,469,94,126739,116459
1291,470,94,126742,116459
1293,471,94,126760,116467
1296,472,94,126772,116467
1298,473,94,126780,116467
1301,473,94,126789,116481
1303,475,94,126789,116488
1306,475,94,126829,116488
1308,477,94,126829,116502
1311,478,94,126843,116508
1313,479,94,126875,116508
1315,480,94,126906,116521
1318,481,94,126919,116540
1320,482,94,126944,116540
1324,483,94,126944,116547
1326,485,94,126970,116566
1329,485,94,126999,116566
1331,486,94,126999,116579
1333,487,94,127031,116591
1336,488,94,127065,116591
1338,488,94,127102,116596
1341,489,94,127102,116619
1343,489,94,127142,116619
1346,490,94,127142,116632
1348,491,94,127161,116641
1351,491,94,127203,116641
1353,493,94,127203,116660
1355,493,94,127227,116670
1358,494,94,127259,116685
1360,494,94,127259,116682
1363,495,94,127288,116693
1366,496,94,127304,116705
1369,496,94,127322,116705
1371,496,94,127365,116710
1373,497,94,127365,116720
1376,498,94,127395,116720
1555,511,93,127578,116802
1558,510,93,127590,116795
1560,509,93,127595,116801
1553,512,93,127581,116798
1555,511,93,127578,116802
1558,510,93,127590,116795
1560,509,93,127595,116801
1563,506,93,127598,116805
1565,505,93,127610,116816
1568,504,93,127607,116817
1570,504,93,127620,116823
1572,505,93,127640,116826
1575,505,94,127639,116819
1577,504,93,127651,116839
1581,504,93,127668,116839
1583,504,93,127674,116852
1586,504,93,127689,116846
1588,504,93,127712,116853
1591,503,93,127723,116861
1593,502,93,127727,116860
1595,503,93,127752,116879
1598,503,94,127759,116880
1600,503,93,127779,116892
1603,504,93,127784,116889
1605,504,93,127802,116904
1608,504,93,127824,116905
1610,504,93,127838,116916
1612,504,93,127859,116930
1615,503,93,127875,116934
1617,502,93,127889,116940
1620,502,93,127906,116952
1623,503,93,127924,116953
1626,503,93,127953,116958
1628,504,93,127966,116975
1631,505,93,127988,116983
1633,505,93,128017,116996
1635,505,93,128043,116998
1638,504,93,128056,117005
1640,502,93,128076,117010
1643,494,93,128096,117021
1645,488,93,128124,117028
1648,484,93,128124,117042
1650,480,93,128159,117049
1652,480,94,128177,117049
1655,494,94,128201,117067
1657,507,95,128226,117065
1660,520,98,128253,117079
1662,539,114,128264,117088
1666,556,129,128294,117095
1668,599,143,128313,117101
1671,622,157,128313,117116
1673,652,176,128350,117121
1675,673,189,128381,117121
1678,721,204,128405,117148
1680,746,231,128421,117150
1683,764,243,128421,117158
1685,779,259,128454,117164
1688,783,270,128479,117164
1690,754,293,128492,117183
1692,729,301,128492,117187
1695,686,314,128530,117202
1697,650,321,128554,117202
1700,607,324,128576,117214
1702,535,346,128591,117216
1705,507,351,128591,117229
1708,477,342,128625,117234
1711,463,336,128642,117234
1713,443,330,128656,117245
1715,440,319,128656,117252
1718,438,313,128686,117262
1720,439,308,128707,117262
1723,441,303,128728,117271
1725,446,295,128737,117283
1728,449,291,128747,117285
1730,455,283,128747,117290
1732,458,278,128767,117300
1735,461,273,128791,117306
1737,463,270,128814,117306
1740,466,266,128837,117319
1742,467,259,128837,117328
1745,469,255,128854,117327
1747,470,251,128866,117327
1751,471,248,128883,117327
1753,473,242,128883,117341
1755,474,238,128896,117351
1758,475,233,128928,117352
1760,476,230,128928,117360
1763,476,226,128949,117362
1765,477,224,128966,117362
1768,478,221,128978,117367
1770,480,216,128978,117376
1772,481,213,128991,117392
1775,482,210,129004,117388
1777,483,208,129015,117388
1780,484,203,129015,117402
1782,485,202,129034,117402
1785,485,199,129055,117406
1787,487,195,129055,117408
1790,488,192,129056,117414
1793,489,190,129079,117414
1795,490,188,129095,117422
1798,492,184,129105,117424
1800,492,183,129115,117424
1803,494,180,129115,117436
1805,495,177,129120,117441
1808,496,176,129140,117441
1810,497,173,129140,117442
1812,498,171,129153,117447
1815,499,169,129161,117447
1817,500,168,129135,117460
1820,503,165,129135,117458
1822,504,163,129184,117461
1825,505,172,129194,117461
1827,506,185,129216,117458
1830,507,211,129216,117473
1832,508,221,129225,117473
1835,510,235,129238,117478
1838,514,259,129238,117490
1840,517,275,129249,117498
1843,520,286,129270,117498
1845,522,299,129281,117497
1848,527,309,129281,117516
1850,530,320,129291,117519
1852,533,344,129297,117519
1855,536,355,129323,117518
1857,538,364,129333,117522
1860,543,384,129333,117523
1862,547,375,129352,117531
1865,550,368,129360,117531
1867,552,362,129371,117538
1870,553,355,129371,117540
1872,552,348,129381,117538
1874,552,337,129379,117538
1878,552,331,129397,117549
1880,551,325,129397,117555
1883,550,320,129404,117548
1885,551,310,129410,117553
1888,552,305,129394,117552
1890,552,300,129395,117550
1892,552,296,129395,117537
1895,552,291,129382,117527
1897,552,283,129352,117527
1900,552,278,129327,117511
1902,551,274,129286,117489
1905,552,270,129240,117460
1907,552,262,129177,117428
1910,552,259,129018,117394
1912,552,256,129018,117309
1914,551,250,128917,117309
1917,550,246,128792,117256
1920,549,243,128665,117198
1923,548,239,128534,117136
1925,546,233,128395,117085
1928,544,230,128244,117020
1930,542,227,128104,116969
1932,540,224,127970,116920
1935,538,221,127862,116867
1937,533,215,127730,116825
1940,530,213,127631,116780
1942,526,210,127535,116738
1945,522,207,127448,116713
1947,514,202,127373,116684
1950,510,200,127295,116648
1952,506,198,127226,116621
1954,502,196,127151,116596
1957,497,193,127094,116568
1959,489,189,127035,116540
1963,485,187,126984,116522
1965,482,185,126938,116498
1968,477,182,126897,116484
1970,473,180,126855,116474
1972,469,177,126811,116453
1975,464,175,126773,116433
1977,462,172,126746,116426
1980,460,170,126707,116413
1982,459,169,126679,116399
1985,457,166,126648,116393
1987,455,164,126622,116395
1990,454,162,126614,116382
1992,454,160,126592,116367
1994,453,159,126578,116360
1997,453,157,126562,116360
1999,453,154,126548,116355
2002,454,153,126534,116346
2004,454,152,126521,116347
2008,455,150,126518,116352
2010,456,148,126513,116347
2012,457,147,126510,116353
2015,459,145,126499,116344
2017,460,143,126504,116349
2020,460,142,126520,116347
2022,461,141,126522,116350
2025,463,140,126530,116355
2027,464,138,126536,116356
2030,465,137,126536,116360
2032,466,136,126552,116365
2034,467,135,126562,116372
2037,468,133,126571,116374
2039,469,132,126587,116380
2042,470,131,126601,116384
2044,471,130,126611,116392
2048,472,129,126628,116401
2050,474,128,126639,116405
2052,475,127,126655,116416
2055,477,126,126673,116420
2057,478,125,126692,116431
2060,479,124,126710,116435
2062,480,123,126718,116448
2065,481,122,126744,116458
2067,483,121,126761,116460
2070,484,120,126782,116473
2072,484,120,126809,116480
2074,485,119,126817,116483
2077,486,118,126833,116497
2079,486,118,126856,116508
2082,487,117,126871,116508
2084,489,116,126892,116509
2087,489,115,126916,116523
2089,491,114,126926,116525
2092,492,114,126954,116539
2095,493,113,126961,116555
2097,493,113,126979,116551
2100,494,112,126991,116557
2102,495,111,127006,116559
2105,495,111,127029,116570
2107,495,110,127037,116575
2110,495,110,127048,116579
2112,496,109,127076,116591
2114,496,109,127087,116598
2117,496,108,127098,116596
2119,497,108,127119,116598
2122,497,108,127131,116608
2124,498,107,127145,116613
2127,498,106,127145,116615
2129,499,106,127176,116626
2131,499,106,127195,116626
2135,499,105,127204,116646
2137,500,105,127227,116641
2140,500,104,127245,116651
2142,500,104,127262,116659
2145,501,104,127284,116670
2147,501,103,127298,116677
2150,500,103,127298,116685
2152,501,102,127331,116694
2154,501,102,127347,116694
2157,501,102,127378,116708
2159,501,102,127390,116710
2162,501,101,127390,116717
2164,501,101,127415,116721
2167,502,101,127434,116721
2169,502,100,127436,116738
2171,503,100,127436,116740
2174,503,100,127452,116738
2177,504,100,127457,116738
2180,504,100,127470,116743
2182,504,99,127481,116742
2185,504,99,127481,116744
2187,504,99,127485,116750
2190,504,99,127487,116750
2192,504,99,127485,116744
2194,504,98,127485,116739
2197,505,98,127468,116743
2199,505,98,127469,116743
2202,505,98,127475,116734
2204,505,97,127452,116722
2207,505,97,127448,116731
2209,505,97,127448,116722
2211,505,97,127446,116721
2214,505,97,127425,116719
2216,506,97,127424,116719
2220,506,96,127416,116709
2222,506,96,127416,116705
2225,506,96,127411,116706
2227,507,96,127382,116706
2230,506,96,127376,116706
2232,506,95,127376,116694
2234,505,95,127373,116688
2237,506,95,127355,116695
2239,506,95,127355,116686
2242,507,95,127335,116684
2244,508,95,127336,116684
2247,508,95,127336,116673
2249,508,95,127336,116671
2251,509,94,127322,116667
2254,508,94,127315,116671
2256,508,94,127305,116671
2259,508,94,127305,116661
2262,508,94,127306,116661
2265,509,94,127302,116670
2267,509,94,127302,116665
2270,510,94,127299,116664
2272,510,94,127298,116664
2274,510,94,127294,116660
2277,511,93,127294,116660
2279,511,93,127297,116661
2282,512,93,127297,116661
2284,512,93,127298,116662
2287,513,93,127298,116663
2289,513,93,127305,116663
2291,514,93,127308,116660
2294,516,93,127308,116671
2296,518,93,127316,116678
2299,519,93,127330,116678
2301,520,93,127331,116676
2305,521,93,127331,116681
2307,521,93,127334,116682
2310,521,92,127353,116682
2312,521,93,127353,116696
2314,521,92,127369,116701
2317,521,92,127384,116705
2319,521,92,127384,116712
2322,521,92,127392,116713
2324,521,92,127406,116717
2327,521,92,127409,116717
2329,521,92,127437,116720
2331,522,92,127437,116730
2334,523,92,127455,116730
2336,523,92,127472,116741
2339,523,92,127472,116746
2341,520,92,127491,116753
2344,519,92,127512,116753
2347,518,92,127539,116759
2350,516,92,127539,116776
2352,515,92,127573,116776
2354,514,92,127573,116793
2357,513,91,127588,116800
2359,512,91,127610,116808
2362,510,91,127627,116817
2364,509,91,127643,116827
2367,508,91,127667,116827
2369,507,91,127692,116835
2371,506,91,127704,116840
2374,506,91,127720,116848
2376,506,91,127751,116861
2379,505,91,127788,116870
2381,505,91,127788,116882
2384,504,91,127811,116891
2386,504,91,127828,116891
2390,504,91,127846,116904
2392,504,91,127875,116913
2394,504,91,127895,116916
2397,503,91,127914,116926
2399,503,91,127931,116935
2402,503,91,127954,116948
2404,503,91,127984,116963
2407,504,91,128009,116967
2409,504,100,128037,116977
2411,505,100,128055,116986
2414,505,100,128074,116991
2416,506,99,128095,117005
2419,506,109,128124,117016
2421,503,141,128146,117015
2424,503,155,128167,117025
2426,504,171,128178,117031
2429,506,183,128201,117038
2432,508,200,128218,117050
2434,511,217,128238,117063
2437,515,236,128257,117067
2439,517,260,128288,117075
2442,518,271,128299,117087
2444,518,284,128330,117092
2447,516,296,128345,117097
2449,509,320,128367,117102
2451,505,329,128387,117118
2454,502,341,128402,117125
2456,501,351,128411,117132
2459,504,363,128431,117135
2461,515,373,128446,117144
2464,530,382,128464,117154
2466,561,394,128483,117158
2469,581,401,128504,117172
2471,599,406,128516,117172
2473,623,411,128547,117183
2477,672,419,128553,117183
2479,698,435,128565,117184
2482,717,442,128578,117200
2484,746,451,128604,117207
2487,783,462,128604,117208
2489,820,477,128628,117215
2491,828,484,128631,117224
2494,823,492,128649,117226
2496,803,500,128671,117232
2499,764,509,128680,117239
2501,688,521,128689,117246
2504,646,528,128695,117242
2506,597,535,128709,117247
2509,551,541,128723,117249
2511,484,549,128722,117263
2513,466,560,128749,117270
2516,454,565,128758,117266
2519,446,571,128771,117268
2522,445,581,128774,117279
2524,447,586,128785,117284
2527,452,592,128789,117294
2529,461,602,128806,117294
2531,465,607,128820,117297
2534,469,613,128829,117296
2536,472,617,128838,117300
2539,476,623,128844,117312
2541,478,631,128856,117319
2544,479,636,128865,117316
2546,481,640,128870,117314
2549,482,645,128871,117325
2551,484,653,128881,117323
2553,486,657,128904,117325
2556,486,661,128900,117331
2558,487,665,128910,117338
2562,489,670,128920,117342
2564,491,676,128919,117346
2567,492,679,128929,117348
2569,493,685,128936,117344
2571,494,689,128947,117347
2574,495,692,128953,117349
2576,497,696,128961,117360
2579,498,702,128966,117361
2581,498,705,128979,117358
2584,498,708,128979,117366
2586,499,711,128979,117371
2589,500,714,128994,117374
2591,501,719,129009,117368
2593,501,722,129008,117376
2596,502,725,129020,117377
2598,503,728,129030,117381
2601,505,730,129035,117389
2604,506,735,129041,117386
2607,506,737,129041,117389
2609,507,740,129052,117394
2611,507,742,129066,117394
2614,508,747,129095,117406
2616,509,749,129094,117404
2619,509,751,129106,117405
2621,510,753,129101,117412
2624,511,755,129111,117409
2626,512,759,129123,117415
2629,512,761,129123,117418
2631,513,763,129126,117418
2633,514,765,129138,117418
2636,514,767,129155,117435
2638,516,750,129159,117431
2641,516,752,129159,117442
2643,516,755,129183,117444
2647,515,756,129194,117444
2649,515,761,129204,117459
2651,515,762,129204,117456
2654,516,765,129220,117465
2656,517,767,129232,117465
2659,519,769,129246,117480
2661,521,772,129250,117479
2664,522,773,129250,117479
2666,524,776,129279,117483
2669,525,777,129289,117483
2671,529,766,129292,117496
2673,530,747,129292,117496
2676,531,729,129311,117498
2678,531,716,129324,117498
2681,530,703,129346,117505
2683,528,678,129340,117509
2686,527,669,129340,117513
2689,526,646,129340,117507
2691,526,631,129339,117500
2694,525,617,129309,117489
2696,525,609,129277,117489
2699,525,597,129243,117446
2701,525,577,129243,117433
2704,525,565,129201,117396
2706,526,556,129053,117396
2709,526,545,128951,117362
2711,526,527,128951,117258
2713,526,516,128844,117208
2716,526,504,128572,117150
2718,526,495,128572,117083
2721,526,484,128277,117023
2723,526,477,128120,117023
2726,526,470,127980,116952
2728,525,455,127980,116841
2731,523,446,127826,116790
2734,522,438,127580,116790
2736,521,432,127475,116744
2739,518,419,127475,116664
2741,516,414,127272,116664
2744,513,407,127195,116623
2746,507,394,127195,116560
2749,502,387,127112,116530
2751,499,381,126977,116530
2753,495,375,126908,116506
2756,487,364,126908,116450
2758,481,357,126845,116432
2761,478,352,126731,116432
2763,473,347,126686,116407
2766,466,337,126686,116364
2768,464,334,126590,116364
2770,459,328,126545,116351
2774,453,319,126545,116315
2776,449,313,126508,116301
2779,446,309,126447,116301
2781,444,304,126413,116296
2784,440,296,126413,116275
2786,438,291,126388,116263
2789,437,287,126338,116263
2791,435,281,126338,116252
2793,434,276,126328,116243
2796,434,274,126297,116243
2798,434,270,126297,116227
2801,434,267,126278,116231
2803,434,262,126268,116230
2806,434,255,126262,116230
2808,434,252,126249,116223
2810,435,246,126249,116225
2813,436,244,126245,116225
2816,437,240,126245,116224
2819,439,237,126238,116226
2821,440,234,126251,116229
2824,441,228,126246,116229
2826,442,225,126267,116235
2829,445,220,126267,116237
2831,446,218,126283,116237
2833,447,216,126283,116248
2836,449,213,126295,116261
2838,450,211,126307,116266
2841,452,207,126318,116267
2843,453,204,126328,116277
2846,455,200,126350,116277
2848,456,198,126364,116283
2850,457,195,126385,116288
2853,458,193,126398,116292
2855,460,189,126413,116304
2859,461,187,126448,116308
2861,463,185,126448,116323
2864,463,183,126459,116323
2866,466,179,126477,116330
2869,468,177,126507,116331
2871,469,176,126503,116347
2873,471,174,126529,116353
2876,472,172,126554,116353
2878,474,169,126564,116362
2881,475,167,126594,116376
2883,476,165,126599,116376
2886,477,164,126601,116384
2888,478,162,126614,116385
2890,479,160,126629,116395
2893,481,157,126645,116395
2895,482,156,126661,116405
2898,483,155,126664,116408
2900,484,153,126684,116406
2904,484,152,126690,116415
2906,486,149,126708,116417
2909,486,148,126715,116418
2911,486,147,126723,116427
2913,487,146,126730,116435
2916,487,145,126738,116432
2918,488,143,126746,116437
2921,488,141,126748,116436
2923,489,141,126772,116438
2926,489,139,126778,116445
2928,490,138,126785,116447
2930,491,137,126800,116452
2933,492,136,126805,116459
2935,492,134,126816,116461
2938,493,133,126835,116464
2940,493,132,126840,116472
2944,493,131,126846,116477
2946,494,130,126855,116483
2949,495,129,126868,116488
2951,496,128,126900,116494
2953,496,127,126904,116502
2956,497,127,126930,116506
2958,497,125,126937,116516
2961,497,124,126948,116511
2963,497,124,126959,116520
2966,497,123,126970,116521
2968,497,122,126983,116530
2970,498,121,126998,116538
2973,499,121,127012,116540
2975,499,120,127016,116550
2978,500,119,127037,116547
2980,500,119,127037,116555
2983,500,118,127038,116554
2985,500,117,127051,116551
2989,500,116,127047,116548
2991,500,116,127044,116552
2993,500,115,127058,116558
2996,500,115,127043,116558
2998,501,114,127049,116555
3001,501,113,127045,116555
3003,501,113,127047,116550
3006,501,112,127049,116555
3008,502,112,127049,116545
3010,502,111,127044,116556
3013,502,111,127046,116548
3015,503,110,127040,116548
3018,503,110,127037,116545
3020,504,109,127038,116544
3023,504,109,127038,116546
3025,505,108,127027,116542
3028,505,108,127031,116540
3031,505,107,127025,116541
3033,505,107,127016,116534
3036,505,107,127015,116535
3038,505,107,127013,116537
3041,505,106,127015,116539
3043,505,105,127003,116538
3046,505,105,126998,116531
3048,506,105,127006,116532
3050,506,105,127007,116535
3053,506,104,126998,116535
3055,506,104,126994,116528
3058,507,103,126995,116528
3060,507,103,126989,116523
3063,507,103,126990,116530
3065,507,103,126992,116533
3068,507,103,126991,116526
3070,508,102,126998,116535
3073,508,102,127004,116532
3076,509,102,127003,116533
3078,509,101,127002,116533
3081,509,101,127008,116531
3083,509,101,127008,116531
3086,509,100,127008,116532
3088,510,100,127007,116531
3090,510,100,127017,116531
3093,511,100,127036,116549
3095,511,100,127028,116543
3098,512,100,127038,116544
3100,513,99,127040,116550
3103,513,99,127053,116545
3105,514,99,127058,116555
3108,514,99,127058,116558
3110,515,99,127065,116564
3112,516,99,127085,116564
3116,519,98,127098,116569
3118,520,98,127104,116570
3121,520,98,127104,116583
3123,521,98,127126,116583
3126,521,98,127143,116583
3128,520,97,127146,116597
3130,520,97,127146,116598
3133,520,97,127177,116607
3135,520,97,127192,116607
3138,520,97,127205,116622
3140,522,97,127222,116622
3143,522,96,127222,116633
3145,523,96,127253,116633
3148,524,96,127264,116633
3150,523,96,127286,116650
3152,523,96,127286,116660
3155,522,96,127319,116666
3158,521,96,127337,116666
3161,520,96,127353,116669
3163,518,96,127378,116690
3166,518,96,127399,116701
3168,516,96,127399,116709
3170,515,95,127415,116718
3173,514,95,127450,116722
3175,513,95,127463,116722
3178,510,95,127496,116742
3180,509,95,127496,116760
3183,508,95,127514,116754
3185,508,95,127555,116754
3188,507,95,127572,116765
3190,506,95,127572,116779
3192,506,95,127596,116798
3195,506,95,127640,116798
3197,506,94,127640,116814
3201,506,94,127678,116824
3203,506,94,127699,116824
3206,505,94,127721,116828
3208,505,94,127721,116843
3210,505,94,127736,116852
3213,505,94,127785,116852
3215,504,94,127809,116863
3218,504,94,127809,116881
3220,504,94,127842,116881
3223,505,94,127868,116896
3225,505,94,127868,116902
3228,506,94,127890,116915
3230,506,94,127934,116915
3232,507,94,127946,116922
3235,506,94,127946,116941
3237,506,94,127969,116943
3240,506,93,128005,116943
3243,507,94,128028,116951
3246,507,93,128028,116963
3248,507,93,128067,116963
3250,507,93,128086,116990
3253,508,93,128086,116994
3255,507,93,128111,117000
3258,506,93,128146,117000
3260,503,93,128161,117008
3263,496,93,128161,117023
3265,490,93,128172,117031
3268,486,93,128210,117031
3270,482,93,128210,117041
3272,487,93,128225,117045
3275,493,93,128260,117045
3277,514,93,128260,117057
3280,532,93,128280,117062
3282,555,93,128297,117078
3286,574,93,128306,117078
3288,593,93,128347,117081
3290,637,93,128347,117103
3293,655,93,128361,117103
3295,681,93,128361,117108
3298,730,93,128379,117109
3300,760,93,128388,117112
3303,778,93,128402,117112
3305,791,93,128412,117120
3308,795,93,128433,117119
3310,785,93,128440,117133
3312,731,93,128450,117133
3315,696,93,128464,117137
3317,650,93,128464,117151
3320,562,93,128479,117153
3322,518,93,128488,117153
3325,481,93,128504,117155
3328,458,93,128511,117162
3330,440,93,128527,117163
3333,429,93,128533,117160
3335,427,93,128543,117168
3338,429,93,128556,117171
3340,433,93,128556,117187
3343,436,92,128571,117187
3345,448,92,128570,117182
3348,453,93,128595,117185
3350,455,92,128593,117197
3352,458,92,128607,117193
3355,460,92,128617,117200
3357,463,92,128624,117202
3360,464,92,128625,117208
3362,466,92,128638,117206
3365,467,92,128643,117216
3367,470,92,128648,117215
3369,472,92,128651,117219
3373,473,92,128655,117219
3375,474,92,128676,117227
3378,475,92,128685,117232
3380,476,92,128691,117232
3383,477,92,128698,117234
3385,479,92,128706,117234
3388,480,92,128710,117235
3390,481,92,128717,117234
3392,482,92,128724,117242
3395,483,92,128726,117254
3397,485,92,128732,117250
3400,487,92,128748,117262
3402,488,92,128760,117258
3405,489,92,128771,117267
3407,490,92,128786,117267
3409,491,92,128795,117270
3412,493,92,128793,117273
3415,493,92,128797,117276
3418,494,92,128809,117283
3420,495,92,128819,117287
3423,496,92,128821,117291
3425,498,92,128830,117296
3428,499,92,128833,117292
3430,500,92,128857,117301
3432,500,92,128863,117307
3435,501,92,128880,117314
3437,502,92,128892,117313
3440,503,92,128902,117318
3442,505,92,128908,117320
3445,506,92,128914,117333
3447,507,92,128920,117329
3449,507,92,128942,117336
3452,509,92,128951,117342
3454,510,92,128956,117345
3458,511,92,128987,117348
3460,512,92,128996,117360
3463,514,92,129003,117359
3465,516,92,129014,117372
3468,517,92,129036,117372
3470,519,92,129047,117385
3472,520,92,129059,117388
3475,521,92,129071,117404
3477,523,92,129093,117401
3480,524,92,129096,117407
3482,527,92,129110,117411
3485,528,92,129135,117415
3487,529,92,129155,117431
3489,531,92,129160,117428
3492,534,92,129164,117426
3494,536,92,129180,117439
3497,537,92,129190,117442
3500,539,92,129194,117442
3503,541,92,129198,117451
3505,543,92,129206,117449
3508,545,92,129204,117454
3510,546,92,129197,117439
3512,548,92,129188,117441
3515,549,92,129163,117416
3517,551,92,129126,117398
3520,552,92,129084,117379
3522,554,94,129032,117355
3525,554,106,128954,117314
3527,554,133,128873,117277
3529,555,150,128778,117235
3532,557,163,128665,117183
3534,558,181,128531,117114
3537,561,207,128393,117071
3539,562,222,128251,116998
3543,563,234,128097,116938
3545,564,250,127940,116874
3548,565,261,127800,116818
3550,565,285,127669,116766
3552,565,287,127539,116715
3555,565,281,127426,116671
3557,562,273,127313,116624
3560,559,269,127313,116588
3562,554,263,127132,116556
3565,550,260,127052,116556
3567,539,252,126977,116498
3569,535,249,126912,116463
3572,526,243,126838,116436
3574,521,240,126838,116417
3577,514,236,126721,116391
3579,506,231,126659,116368
3582,502,228,126659,116348
3585,496,224,126572,116328
3588,492,222,126525,116328
3590,483,218,126493,116301
3592,480,214,126449,116284
3595,475,209,126421,116269
3597,472,207,126421,116257
3600,469,204,126347,116252
3602,466,200,126324,116249
3605,464,198,126324,116235
3607,463,195,126280,116227
3609,462,193,126267,116227
3612,459,191,126251,116218
3614,458,187,126251,116205
3617,457,184,126225,116207
3619,457,182,126220,116207
3622,457,180,126226,116202
3624,457,177,126224,116197
3628,457,176,126214,116208
3630,458,172,126225,116211
3632,458,171,126223,116211
3635,459,169,126221,116207
3637,460,166,126221,116215
3640,460,164,126236,116219
3642,461,162,126250,116219
3645,462,161,126263,116217
3647,464,158,126270,116229
3649,465,157,126270,116251
3652,466,155,126305,116245
3654,467,154,126315,116245
3657,468,152,126331,116263
3659,469,150,126331,116267
3662,470,148,126355,116281
3664,471,147,126381,116281
3667,472,146,126405,116285
3670,474,144,126405,116303
3672,475,142,126430,116320
3675,476,141,126466,116320
3677,476,140,126488,116327
3680,477,139,126504,116331
3682,478,137,126504,116345
3685,479,136,126541,116355
3687,480,135,126565,116355
3689,481,134,126590,116361
3692,482,132,126607,116375
3694,483,132,126623,116375
3697,485,130,126623,116391
3699,485,129,126641,116403
3702,486,128,126683,116403
3704,487,127,126683,116415
3707,488,126,126712,116427
3709,489,125,126726,116427
3712,489,125,126752,116427
3715,490,123,126760,116437
3717,491,123,126775,116437
3720,492,122,126775,116449
3722,492,121,126788,116455
3725,493,120,126812,116455
3727,493,119,126812,116459
3729,493,118,126826,116462
3732,494,118,126847,116462
3734,494,118,126847,116475
3737,494,117,126865,116483
3739,495,116,126877,116486
3742,495,115,126880,116486
3744,495,115,126915,116496
3747,496,114,126915,116502
3749,497,114,126930,116502
3751,497,113,126949,116515
3755,498,112,126949,116522
3757,498,112,126966,116530
3760,498,111,127000,116530
3762,498,111,127010,116535
3765,498,110,127010,116545
3767,498,110,127036,116552
3769,499,109,127036,116552
3772,499,109,127068,116558
3774,499,108,127084,116571
3777,500,108,127084,116578
3779,500,107,127097,116574
3782,500,107,127107,116574
3784,501,106,127128,116583
3787,501,106,127128,116584
3789,502,106,127132,116581
3791,502,105,127131,116581
3794,502,105,127143,116587
3796,502,104,127137,116590
3800,503,104,127150,116598
3802,504,104,127149,116602
3805,504,103,127147,116597
3807,504,103,127145,116594
3809,504,103,127145,116596
3812,504,103,127147,116587
3814,504,102,127141,116587
3817,504,102,127137,116590
3819,504,102,127133,116585
3822,503,101,127118,116581
3824,504,101,127112,116576
3827,504,101,127109,116581
3829,504,100,127112,116571
3831,504,100,127101,116568
3834,504,100,127106,116567
3836,504,100,127106,116564
3840,504,100,127098,116565
3842,505,99,127084,116564
3845,505,99,127080,116555
3847,505,99,127059,116550
3849,505,99,127055,116545
3852,506,98,127042,116545
3854,506,98,127044,116542
3857,506,98,127040,116544
3859,507,98,127041,116545
3862,507,97,127030,116545
3864,507,97,127038,116530
3867,507,97,127017,116538
3869,508,97,127029,116539
3871,508,97,127031,116536
3874,507,97,127008,116529
3876,507,97,127020,116533
3879,507,96,127017,116532
3881,507,96,127011,116523
3885,507,96,127016,116538
3887,508,96,127011,116530
3889,508,96,127009,116532
3892,509,96,127020,116529
3894,509,96,127020,116531
3897,508,95,127029,116537
3899,509,95,127032,116538
3902,509,95,127037,116552
3904,509,95,127033,116547
3907,508,95,127048,116549
3909,509,95,127045,116548
3911,509,95,127055,116552
3914,510,95,127070,116552
3916,510,94,127075,116560
3919,510,94,127077,116564
3921,509,94,127082,116564
3924,508,94,127099,116565
3927,507,94,127108,116578
3929,507,94,127119,116588
3932,510,94,127119,116577
3934,512,94,127145,116594
3937,512,94,127156,116604
3939,512,94,127159,116609
3942,512,94,127184,116602
3944,512,94,127196,116618
3947,512,93,127214,116619
3949,510,93,127220,116621
3951,508,93,127238,116639
3954,508,93,127248,116637
3956,509,93,127278,116655
3959,512,93,127286,116656
3961,513,93,127305,116667
3964,513,93,127329,116676
3966,512,93,127348,116687
3969,512,93,127360,116685
3972,512,93,127389,116697
3974,512,93,127402,116707
3977,511,93,127437,116717
3979,511,93,127446,116727
3982,511,93,127465,116736
3984,512,93,127491,116742
3987,512,93,127510,116755
3989,511,92,127535,116768
3991,510,92,127558,116771
3994,510,92,127573,116780
3996,512,92,127595,116793
3999,513,92,127618,116798
4001,515,92,127638,116805
4004,515,92,127667,116815
4006,514,92,127695,116828
4008,515,92,127715,116840
4012,516,92,127737,116850
4014,517,92,127753,116846
4017,518,92,127780,116864
4019,520,92,127801,116872
4022,521,92,127817,116875
4024,519,92,127840,116892
4027,517,92,127862,116898
4029,517,92,127883,116902
4031,520,92,127900,116915
4034,524,92,127926,116928
4036,526,92,127950,116927
4039,526,92,127950,116941
4041,525,92,127984,116947
4044,523,92,128006,116947
4046,518,92,128035,116968
4048,517,92,128050,116972
4051,521,92,128070,116982
4054,523,92,128070,116986
4057,522,92,128106,116989
4059,519,92,128128,117009
4062,517,92,128128,117015
4064,515,92,128167,117016
4067,514,92,128186,117016
4069,513,92,128215,117039
4071,513,92,128227,117047
4074,512,92,128251,117053
4076,510,92,128251,117062
4079,507,92,128282,117070
4081,504,91,128303,117074
4084,501,92,128303,117086
4086,499,91,128339,117091
4088,500,92,128359,117091
4091,501,91,128372,117102
4093,503,91,128372,117111
4097,507,92,128391,117119
4099,508,91,128425,117119
4102,507,91,128447,117124
4104,504,91,128461,117138
4107,503,92,128470,117152
4109,502,91,128487,117153
4111,502,92,128492,117153
4114,501,91,128526,117156
4116,501,91,128526,117166
4119,501,91,128538,117171
4121,503,91,128551,117171
4124,505,91,128580,117185
4126,505,91,128576,117186
4128,503,91,128576,117192
4131,503,91,128607,117192
4133,503,91,128624,117206
4136,504,91,128635,117210
4139,507,91,128635,117220
4142,508,91,128644,117221
4144,508,91,128672,117221
4147,508,91,128683,117236
4149,506,91,128683,117242
4151,505,91,128705,117245
4154,504,91,128719,117245
4156,502,91,128737,117253
4159,498,91,128741,117250
4161,489,91,128741,117261
4164,485,91,128760,117264
4166,486,91,128779,117264
4168,489,91,128791,117274
4171,505,91,128797,117277
4173,514,91,128805,117277
4176,541,91,128805,117283
4178,563,91,128801,117295
4182,581,91,128830,117295
4184,614,91,128830,117296
4187,641,91,128847,117296
4189,660,91,128855,117296
4191,680,91,128835,117300
4194,717,91,128874,117308
4196,729,91,128891,117308
4199,748,91,128891,117313
4201,746,91,128891,117322
4204,734,91,128910,117322
4206,697,92,128910,117325
4208,655,91,128920,117330
4211,622,91,128936,117330
4213,560,92,128936,117331
4216,517,91,128945,117339
4218,480,91,128949,117341
4221,459,91,128954,117341
4224,444,91,128973,117338
4227,429,91,128973,117349
4229,427,91,128976,117349
4231,428,91,128991,117363
4234,435,91,128991,117363
4236,441,91,128995,117360
4239,446,91,129007,117360
4241,451,91,129024,117371
4244,459,91,129024,117379
4246,463,91,129035,117383
4248,466,91,129039,117383
4251,468,91,129056,117379
4253,470,91,129066,117390
4256,473,91,129066,117393
4258,475,91,129070,117393
4261,477,91,129070,117394
4263,477,91,129083,117398
4267,478,91,129083,117403
4269,480,91,129092,117403
4271,481,91,129086,117403
4274,482,91,129088,117406
4276,483,91,129095,117406
4279,485,91,129105,117408
4281,488,91,129116,117414
4284,489,91,129127,117410
4286,491,91,129134,117418
4288,492,91,129134,117424
4291,493,91,129145,117424
4293,494,91,129146,117428
4296,496,91,129160,117437
4298,498,91,129172,117434
4301,499,91,129174,117438
4303,499,91,129179,117441
4306,499,91,129196,117447
4308,499,91,129213,117452
4311,500,91,129215,117452
4314,501,91,129222,117457
4316,504,91,129233,117459
4319,505,91,129240,117464
4321,506,91,129253,117471
4324,507,91,129262,117472
4326,508,91,129281,117478
4328,509,91,129296,117486
4331,509,91,129297,117491
4333,510,91,129313,117495
4336,510,91,129335,117504
4338,511,91,129347,117510
4341,512,91,129358,117510
4343,515,91,129363,117515
4346,515,91,129379,117522
4348,516,91,129389,117534
4350,516,91,129409,117533
4354,517,91,129422,117532
4356,518,91,129434,117547
4359,519,91,129451,117555
4361,521,91,129463,117558
4364,522,91,129479,117563
4366,524,91,129490,117574
4368,525,91,129503,117575
4371,525,91,129514,117583
4373,526,91,129542,117589
4376,528,91,129563,117595
4378,531,91,129567,117604
4381,532,91,129575,117612
4383,532,91,129589,117611
4386,534,91,129614,117621
4388,538,91,129616,117624
4390,540,91,129634,117634
4393,542,91,129651,117630
4396,544,91,129666,117637
4399,545,91,129666,117643
4401,546,91,129685,117654
4404,548,91,129689,117648
4406,550,91,129685,117643
4408,551,91,129682,117642
4411,552,91,129667,117632
4413,552,91,129646,117626
4416,554,91,129624,117616
4418,555,91,129594,117594
4421,557,91,129546,117570
4423,558,91,129482,117537
4426,558,91,129405,117500
4428,559,91,129309,117459
4430,559,91,129216,117410
4433,560,91,129094,117356
4435,560,91,128964,117301
4439,559,91,128815,117245
4441,557,91,128671,117173
4444,555,91,128520,117116
4446,553,91,128355,117047
4448,552,91,128192,116984
4451,551,91,128030,116919
4453,548,91,127887,116848
4456,544,91,127750,116811
4458,540,91,127632,116756
4461,537,91,127512,116712
4463,534,91,127416,116683
4466,529,91,127323,116649
4468,522,91,127247,116609
4470,517,91,127167,116582
4473,513,91,127104,116563
4475,508,91,127042,116536
4478,501,91,126989,116513
4481,497,91,126946,116494
4484,493,91,126890,116475
4486,489,91,126857,116455
4488,484,91,126803,116443
4491,478,91,126766,116433
4493,476,91,126748,116414
4496,474,91,126716,116404
4498,471,91,126685,116391
4501,470,91,126667,116392
4503,467,91,126644,116381
4506,466,91,126626,116371
4508,465,91,126609,116370
4510,463,91,126590,116370
4513,462,91,126593,116356
4515,462,91,126582,116351
4518,461,91,126582,116355
4520,461,91,126570,116356
4524,462,91,126567,116356
4526,462,91,126581,116362
4528,462,91,126581,116362
4531,463,91,126590,116368
4533,463,91,126590,116370
4536,464,91,126595,116379
4538,465,91,126608,116376
4541,465,91,126608,116380
4543,467,91,126627,116389
4546,468,91,126645,116389
4548,470,91,126678,116411
4550,470,91,126689,116415
4553,471,91,126704,116424
4555,472,91,126704,116432
4558,473,91,126745,116444
4560,474,91,126772,116453
4563,474,91,126772,116458
4566,474,91,126809,116470
4568,475,91,126833,116470
4571,477,91,126867,116492
4573,478,91,126867,116503
4576,480,91,126888,116512
4578,481,91,126928,116512
4581,482,91,126961,116527
4583,483,91,126981,116540
4586,484,91,127000,116557
4588,485,91,127032,116568
4590,485,91,127055,116568
4593,486,91,127077,116583
4595,486,91,127077,116602
4598,486,91,127103,116608
4600,487,91,127149,116608
4603,488,91,127170,116612
4605,489,91,127170,116627
4608,488,91,127190,116641
4611,489,91,127238,116641
4613,489,91,127259,116650
4616,490,91,127279,116671
4618,490,91,127279,116677
4621,491,91,127300,116692
4623,492,91,127349,116692
4626,492,91,127363,116698
4628,493,91,127363,116712
4630,493,91,127386,116723
4633,494,91,127420,116723
4635,494,91,127449,116729
4638,494,91,127469,116744
4640,495,91,127469,116755
4643,495,91,127516,116769
4645,496,91,127539,116769
4647,496,91,127565,116773
4651,495,91,127584,116797
4653,495,91,127604,116797
4656,496,91,127604,116814
4658,497,91,127627,116823
4661,498,91,127664,116823
4663,497,91,127664,116823
4666,497,91,127683,116832
4668,497,91,127708,116832
4670,496,91,127719,116846
4673,497,91,127719,116848
4675,498,91,127728,116849
4678,498,91,127741,116849
4680,498,91,127756,116856
4683,499,91,127756,116856
4685,500,91,127752,116856
4687,500,91,127746,116860
4690,500,91,127746,116851
4692,500,91,127733,116845
4696,500,91,127714,116845
4698,500,91,127700,116837
4701,501,91,127700,116825
4703,502,91,127682,116821
4706,502,91,127661,116821
4708,503,91,127632,116808
4710,503,91,127613,116808
4713,503,91,127613,116777
4715,503,91,127595,116775
4718,503,91,127538,116775
4720,503,91,127519,116765
4723,504,91,127519,116740
4725,503,91,127504,116734
4727,504,91,127480,116734
4730,504,91,127445,116723
4732,504,91,127420,116718
4736,504,91,127420,116708
4738,504,91,127411,116699
4741,504,91,127367,116695
4743,504,91,127354,116687
4746,505,91,127354,116670
4748,505,91,127340,116672
4750,506,91,127317,116672
4753,506,91,127313,116669
4755,506,91,127291,116661
4758,506,91,127283,116660
4760,506,91,127279,116656
4763,506,91,127263,116652
4765,506,91,127256,116649
4767,507,91,127256,116637
4770,507,91,127258,116637
4772,507,91,127243,116641
4775,507,91,127246,116639
4777,507,91,127245,116637
4781,507,91,127244,116639
4783,507,91,127240,116641
4786,507,91,127239,116637
4788,507,91,127239,116639
4790,507,91,127237,116644
4793,507,91,127236,116639
4795,508,91,127249,116644
4798,508,91,127252,116653
4800,508,91,127265,116642
4803,507,91,127273,116657
4805,508,91,127279,116658
4807,508,91,127288,116663
4810,508,91,127282,116661
4812,509,91,127299,116669
4815,509,91,127312,116675
4817,510,91,127320,116676
4820,510,91,127328,116686
4823,509,91,127344,116689
4826,510,91,127351,116700
4828,510,91,127372,116702
4830,510,91,127382,116709
4833,511,91,127387,116714
4835,511,91,127423,116722
4838,511,91,127430,116737
4840,512,91,127446,116730
4843,512,91,127462,116748
4845,512,91,127479,116757
4847,512,91,127499,116767
4850,513,91,127522,116766
4852,514,91,127542,116774
4855,515,91,127562,116789
4857,517,91,127583,116790
4860,518,91,127602,116808
4862,518,91,127628,116810
4866,518,91,127642,116821
4868,518,91,127658,116828
4870,518,91,127677,116841
4873,518,91,127704,116845
4875,519,91,127737,116859
4878,519,91,127743,116863
4880,520,91,127770,116869
4883,521,91,127799,116879
4885,522,91,127823,116895
4887,522,91,127836,116902
4890,523,91,127869,116919
4892,522,91,127894,116930
4895,521,91,127919,116939
4897,519,91,127935,116944
4900,519,91,127964,116947
4902,518,91,127993,116959
4905,516,91,128008,116975
4908,515,91,128029,116988
4910,515,91,128062,117000
4913,514,91,128080,117001
4915,513,91,128110,117021
4918,512,91,128125,117024
4920,510,91,128152,117039
4923,509,91,128174,117049
4925,506,91,128198,117058
4927,506,91,128223,117058
4930,505,91,128247,117075
4932,505,91,128271,117084
4935,505,91,128298,117099
4937,504,91,128320,117099
4940,504,91,128338,117116
4942,504,91,128366,117125
4945,503,91,128390,117141
4947,503,91,128407,117139
4950,503,91,128435,117148
4953,503,91,128460,117159
4955,504,91,128466,117166
4958,503,91,128493,117176
4960,503,91,128525,117190
4963,504,91,128545,117196
4965,504,91,128566,117204
4967,504,91,128589,117204
4970,504,91,128603,117222
4972,504,91,128627,117222
4975,504,91,128639,117236
4977,504,91,128666,117243
4980,505,91,128674,117247
4982,505,91,128700,117259
4985,505,91,128700,117261
4987,504,91,128732,117267
4989,505,91,128752,117267
4993,504,91,128763,117290
4995,503,91,128783,117282
4998,501,91,128783,117293
5000,497,91,128814,117297
5003,493,91,128816,117297
5005,482,91,128844,117310
5007,479,91,128853,117313
5010,478,91,128874,117326
5012,482,91,128874,117329
5015,493,91,128894,117338
5017,513,91,128908,117340
5020,527,91,128908,117346
5022,550,91,128936,117357
5025,569,91,128951,117357
5027,618,91,128962,117365
5029,637,91,128974,117364
5032,676,92,128991,117375
5035,697,91,128991,117374
5038,726,91,129012,117379
5040,755,92,129013,117386
5043,772,92,129013,117390
5045,780,92,129040,117394
5047,774,92,129050,117394
5050,729,92,129054,117409
5052,701,92,129054,117402
5055,653,92,129070,117410
5057,616,92,129078,117410
5060,572,92,129103,117411
5062,510,92,129104,117418
5065,488,92,129106,117428
5067,447,92,129110,117419
5069,437,92,129121,117419
5072,423,92,129134,117429
5074,421,92,129134,117439
5078,422,92,129141,117441
5080,425,92,129147,117441
5083,430,92,129153,117445
5085,437,92,129153,117435
5087,443,92,129170,117439
5090,447,91,129167,117439
5092,451,92,129176,117442
5095,454,92,129182,117453
5097,458,92,129182,117459
5100,460,92,129189,117453
5102,461,92,129200,117453
5105,463,92,129207,117469
5107,466,91,129207,117463
5109,469,91,129215,117466
5112,470,91,129222,117466
5114,471,91,129236,117464
5117,472,91,129249,117478
5120,473,91,129249,117480
5123,474,91,129251,117485
5125,475,92,129258,117485
5127,477,91,129258,117482
5130,479,91,129258,117486
5132,481,91,129269,117488
5135,482,91,129278,117488
5137,483,91,129295,117493
5140,485,91,129295,117496
5142,486,92,129307,117496
5145,487,91,129317,117507
5147,488,91,129317,117510
5149,489,91,129317,117509
5152,490,91,129334,117509
5154,491,91,129337,117518
5157,493,91,129337,117517
5159,495,91,129346,117522
5163,496,91,129354,117522
5165,497,91,129375,117533
5167,498,91,129374,117534
5170,500,91,129374,117535
5172,501,91,129383,117536
5175,501,91,129399,117536
5177,502,91,129416,117546
5180,503,91,129416,117551
5182,504,91,129427,117562
5185,506,91,129433,117562
5187,506,91,129448,117563
5189,507,91,129463,117560
5192,509,91,129463,117573
5194,511,91,129479,117586
5197,512,91,129497,117586
5199,512,91,129505,117593
5202,513,91,129505,117599
5204,515,91,129521,117607
5207,516,91,129534,117607
5210,516,91,129546,117612
5212,517,91,129561,117617
5215,518,91,129579,117618
5217,520,91,129597,117626
5220,521,91,129619,117636
5222,522,91,129633,117639
5225,523,92,129633,117648
5227,527,91,129651,117664
5229,529,91,129667,117664
5232,530,91,129689,117675
5234,532,91,129707,117681
5237,533,91,129716,117681
5239,536,91,129733,117688
5242,537,91,129765,117688
5244,539,92,129781,117701
5246,540,91,129781,117702
5250,541,91,129788,117702
5252,543,91,129802,117708
5255,545,91,129800,117715
5257,547,91,129825,117707
5260,548,91,129798,117706
5262,549,91,129787,117696
5265,550,91,129762,117692
5267,550,91,129736,117673
5269,551,91,129700,117651
5272,552,91,129645,117620
5274,553,91,129590,117601
5277,553,91,129510,117564
5279,552,91,129433,117510
5282,552,91,129320,117468
5284,550,91,129214,117412
5286,549,91,129079,117360
5289,548,91,128933,117295
5292,546,91,128786,117242
5295,544,91,128631,117179
5297,541,91,128475,117103
5300,537,91,128319,117040
5302,532,91,128160,116982
5305,529,91,128009,116934
5307,525,91,127882,116868
5309,521,91,127772,116828
5312,512,91,127672,116784
5314,508,91,127572,116747
5317,504,91,127485,116716
5319,500,91,127402,116691
5322,496,91,127349,116669
5324,489,91,127269,116634
5326,485,91,127215,116616
5329,482,91,127169,116596
5331,479,92,127123,116574
5335,475,91,127085,116560
5337,471,91,127039,116543
5340,469,91,126999,116529
5342,468,91,126965,116520
5345,466,91,126939,116508
5347,463,91,126906,116503
5349,462,91,126887,116491
5352,461,91,126870,116478
5354,461,91,126865,116474
5357,460,92,126830,116481
5359,460,91,126838,116474
5362,459,91,126831,116476
5364,458,91,126817,116474
5366,459,91,126816,116469
5369,460,91,126817,116472
5371,461,91,126817,116470
5374,463,91,126820,116475
5377,464,91,126826,116485
5380,465,91,126837,116484
5382,465,91,126851,116493
5385,466,91,126855,116491
5387,467,91,126867,116501
5389,468,91,126886,116508
5392,469,91,126894,116514
5394,470,91,126927,116517
5397,471,91,126934,116532
5399,474,91,126958,116545
5402,475,91,126981,116552
5404,476,91,127010,116562
5406,477,91,127035,116575
5409,478,91,127059,116591
5411,479,91,127082,116576
5414,480,91,127107,116612
5416,480,91,127139,116624
5420,481,91,127171,116639
5422,481,91,127203,116650
5425,482,91,127233,116662
5427,484,91,127274,116672
5429,484,91,127293,116688
5432,485,91,127339,116704
5434,486,91,127359,116719
5437,486,91,127398,116727
5439,487,91,127432,116748
5442,487,91,127432,116756
5444,488,91,127504,116776
5446,488,91,127539,116776
5449,488,91,127567,116805
5451,489,91,127604,116809
5454,489,91,127639,116825
5456,489,91,127670,116845
5459,490,91,127701,116855
5462,491,91,127747,116872
5465,492,91,127747,116884
5467,492,91,127798,116890
5469,493,91,127832,116890
5472,494,91,127868,116929
5474,494,91,127902,116939
5477,494,91,127902,116948
5479,495,91,127972,116962
5482,495,91,127996,116962
5484,495,91,128035,116995
5486,495,91,128064,116996
5489,496,91,128096,117013
5491,496,91,128096,117025
5494,496,91,128149,117041
5496,497,91,128185,117052
5499,497,91,128185,117065
5501,498,91,128244,117079
5505,498,92,128268,117079
5507,499,92,128306,117106
5509,499,92,128306,117119
5512,499,91,128370,117130
5514,499,91,128393,117130
5517,499,91,128426,117140
5519,500,91,128460,117165
5522,500,92,128486,117180
5524,501,91,128486,117180
5526,502,91,128511,117190
5529,502,92,128543,117203
5531,503,91,128562,117203
5534,502,92,128583,117213
5536,502,91,128583,117216
5539,501,91,128597,117220
5541,501,91,128606,117220
5544,501,91,128623,117226
5547,502,91,128618,117226
5549,502,91,128618,117226
5552,503,91,128619,117222
5554,503,91,128606,117222
5557,503,91,128595,117207
5559,504,91,128595,117206
5562,504,91,128585,117193
5564,504,91,128549,117193
5566,504,92,128544,117189
5569,504,91,128517,117176
5571,504,91,128517,117169
5574,504,91,128472,117169
5576,504,91,128441,117156
5579,504,91,128418,117140
5581,505,91,128418,117116
5584,505,91,128385,117104
5586,505,91,128335,117104
5588,505,91,128306,117093
5592,505,91,128275,117066
5594,505,92,128248,117066
5597,505,91,128248,117042
5599,505,91,128217,117036
5602,505,91,128167,117036
5604,505,91,128167,117014
5606,505,91,128152,117003
5609,506,91,128093,117003
5611,506,91,128046,116993
5614,507,91,128050,116975
5616,507,91,128038,116975
5619,507,91,128038,116963
5621,508,91,128028,116953
5624,508,91,127980,116953
5626,508,91,127980,116947
5628,508,91,127981,116952
5632,508,91,127959,116952
5634,508,91,127957,116940
5637,508,91,127957,116941
5639,508,91,127940,116934
5642,509,91,127941,116934
5644,509,91,127940,116938
5646,509,91,127940,116936
5649,509,91,127934,116936
5651,509,91,127936,116940
5654,508,91,127936,116944
5656,508,91,127936,116939
5659,508,91,127943,116939
5661,508,91,127954,116947
5664,508,91,127954,116954
5666,508,91,127965,116963
5668,509,91,127970,116963
5671,508,91,128001,116963
5673,509,91,128004,116967
5677,510,91,128004,116988
5679,510,91,128027,116992
5682,511,92,128052,116992
5684,511,91,128069,116997
5686,512,91,128069,117010
5689,512,91,128085,117016
5691,512,91,128100,117016
5694,513,91,128122,117030
5696,513,91,128140,117034
5699,514,91,128172,117047
5701,517,91,128191,117056
5704,518,91,128232,117068
5706,519,91,128246,117081
5708,520,91,128246,117095
5711,519,91,128276,117101
5713,519,91,128295,117101
5716,519,91,128327,117119
5719,519,91,128350,117123
5722,518,91,128375,117134
5724,519,91,128406,117149
5726,520,91,128429,117156
5729,521,91,128451,117171
5731,522,91,128477,117179
5734,522,91,128505,117192
5736,522,91,128543,117202
5739,522,91,128577,117223
5741,521,91,128609,117226
5744,520,91,128637,117238
5746,519,91,128658,117250
5748,518,91,128681,117266
5751,516,91,128714,117280
5753,515,91,128745,117284
5756,513,91,128772,117299
5758,513,91,128798,117311
5762,512,91,128822,117322
5764,510,91,128850,117333
5766,509,91,128901,117339
5769,507,91,128916,117351
5771,506,91,128951,117365
5774,505,91,128953,117374
5776,505,91,128993,117382
5779,505,91,129015,117395
5781,504,91,129044,117406
5784,504,91,129064,117422
5786,504,91,129092,117426
5788,504,91,129112,117437
5791,504,91,129139,117442
5793,504,91,129163,117458
5796,504,91,129188,117467
5798,504,91,129229,117475
5801,504,91,129241,117492
5804,504,91,129260,117505
5806,504,91,129297,117513
5809,505,91,129311,117523
5811,504,91,129327,117532
5814,504,91,129355,117527
5816,504,91,129390,117548
5819,504,91,129402,117556
5821,504,91,129414,117568
5824,504,91,129437,117567
5826,505,91,129462,117580
5828,505,91,129487,117586
5831,505,91,129500,117594
5833,506,91,129509,117595
5836,506,91,129531,117610
5838,505,91,129555,117618
5841,503,91,129564,117621
5843,500,91,129583,117634
5846,494,91,129602,117641
5849,483,91,129622,117649
5851,479,91,129635,117661
5854,476,91,129657,117661
5856,479,91,129673,117668
5859,489,91,129680,117676
5861,509,91,129692,117672
5864,526,91,129707,117679
5866,545,91,129720,117684
5868,567,91,129737,117692
5871,595,91,129749,117700
5873,635,91,129759,117700
5876,656,91,129775,117710
5878,687,91,129784,117717
5881,726,91,129792,117716
5883,748,91,129814,117729
5885,774,91,129825,117736
5889,788,91,129827,117736
5891,778,91,129844,117739
5894,759,91,129855,117742
5896,728,91,129869,117750
5899,683,92,129878,117753
5901,607,92,129885,117761
5904,562,91,129890,117760
5906,525,91,129894,117756
5908,483,91,129911,117763
5911,445,91,129914,117774
5913,434,91,129928,117774
5916,430,91,129928,117777
5918,428,91,129951,117775
5921,430,91,129948,117781
5923,434,91,129963,117780
5925,441,91,129965,117781
5928,445,91,129983,117796
5931,450,91,129981,117794
5934,455,91,129983,117793
5936,457,91,129997,117792
5939,458,91,129997,117796
5941,460,91,130005,117797
5944,462,91,129996,117797
5946,464,91,130012,117807
5948,466,91,130014,117800
5951,467,91,130021,117808
5953,468,91,130022,117810
5956,469,91,130032,117813
5958,471,91,130034,117815
5961,472,91,130034,117813
5963,474,91,130038,117814
5965,475,91,130045,117814
5968,476,91,130053,117824
5970,477,91,130054,117818
5974,479,91,130057,117811
5976,480,91,130057,117825
5979,481,91,130072,117833
5981,483,91,130068,117832
5984,483,91,130068,117834
5986,484,91,130074,117832
5988,485,91,130086,117832
5991,487,91,130099,117844
5993,488,91,130099,117840
5996,490,91,130097,117840
5998,491,91,130115,117840
6001,492,91,130123,117844
6003,493,91,130124,117851
6005,494,91,130124,117853
6008,495,91,130136,117857
6010,496,91,130141,117857
6013,497,91,130159,117869
6016,499,91,130159,117875
6019,500,91,130171,117875
6021,501,91,130182,117875
6024,502,91,130197,117882
6026,504,91,130198,117879
6028,504,91,130198,117886
6031,505,91,130214,117887
6033,506,91,130222,117887
6036,507,91,130235,117895
6038,509,91,130235,117901
6041,510,91,130256,117909
6043,511,91,130264,117909
6045,512,91,130282,117908
6048,514,91,130291,117918
6050,515,91,130295,117918
6053,516,91,130311,117926
6055,519,91,130311,117935
6059,520,91,130325,117937
6061,522,91,130349,117937
6064,523,91,130359,117940
6066,526,91,130359,117958
6068,527,91,130379,117957
6071,529,91,130397,117957
6073,530,91,130421,117968
6076,532,91,130430,117977
6078,534,91,130430,117985
6081,536,91,130451,117986
6083,537,91,130466,117986
6085,538,91,130478,117989
6088,541,91,130478,117997
6090,543,91,130476,118007
6093,544,91,130491,118007
6095,545,91,130492,118000
6098,548,91,130492,117994
6100,549,91,130481,117994
6104,550,91,130462,117997
6106,552,91,130462,117969
6108,553,91,130433,117953
6111,554,91,130363,117953
6113,554,91,130306,117931
6116,554,91,130306,117863
6118,555,91,130243,117820
6121,555,91,130059,117820
6123,555,91,129960,117781
6125,555,91,129838,117729
6128,554,91,129838,117619
6130,553,91,129701,117556
6133,552,91,129396,117556
6135,550,91,129235,117483
6138,546,91,129235,117350
6140,543,91,129061,117273
6144,542,91,128882,117273
6146,538,91,128545,117213
6148,535,91,128384,117151
6151,528,91,128384,117026
6153,523,91,128246,116974
6156,519,91,128003,116974
6158,515,91,127893,116934
6161,511,91,127893,116862
6163,501,91,127815,116829
6165,498,91,127727,116829
6168,493,91,127653,116800
6170,490,91,127602,116772
6173,486,91,127539,116753
6175,480,91,127483,116734
6178,477,91,127411,116720
6180,475,91,127369,116707
6183,472,91,127369,116678
6185,467,91,127346,116666
6188,466,91,127311,116666
6191,464,91,127279,116668
6193,463,91,127264,116651
6196,462,91,127242,116644
6198,461,91,127232,116641
6201,460,91,127216,116634
6203,460,91,127204,116632
6205,460,91,127204,116625
6208,460,91,127212,116635
6210,461,91,127217,116636
6213,461,91,127205,116642
6215,461,91,127217,116638
6218,461,91,127222,116644
6220,463,91,127227,116640
6223,463,91,127236,116651
6225,464,91,127248,116657
6227,465,91,127254,116660
6231,466,91,127280,116671
6233,467,91,127287,116674
6236,468,91,127307,116687
6238,469,91,127332,116691
6241,470,91,127353,116718
6243,472,91,127383,116716
6245,472,91,127409,116731
6248,474,91,127431,116738
6250,474,91,127459,116758
6253,476,91,127478,116764
6255,477,91,127504,116781
6258,478,91,127542,116789
6260,480,91,127566,116808
6263,481,91,127603,116822
6265,482,91,127641,116835
6267,483,91,127681,116849
6270,484,91,127715,116859
6273,484,91,127741,116875
6276,485,91,127775,116898
6278,485,91,127809,116908
6281,486,91,127850,116918
6283,487,91,127881,116935
6285,488,91,127907,116956
6288,488,91,127954,116963
6290,489,91,127992,116977
6293,489,91,128024,116998
6295,490,91,128058,117009
6298,490,91,128089,117025
6300,491,91,128123,117035
6303,491,91,128165,117048
6305,492,91,128185,117066
6307,492,91,128216,117084
6310,493,91,128262,117090
6312,493,91,128292,117092
6316,494,91,128312,117113
6318,494,91,128355,117131
6321,495,91,128372,117145
6323,495,91,128395,117158
6325,496,91,128440,117166
6328,496,91,128467,117178
6330,496,91,128490,117179
6333,497,91,128514,117205
6335,497,91,128542,117214
6338,497,91,128574,117224
6340,497,91,128612,117243
6343,497,91,128633,117247
6345,498,91,128660,117263
6347,498,91,128696,117271
6350,498,91,128728,117282
6352,498,91,128747,117299
6355,498,91,128767,117305
6358,500,91,128799,117326
6361,500,91,128829,117328
6363,501,91,128851,117338
6365,501,91,128878,117350
6368,501,91,128893,117354
6370,502,91,128911,117362
6373,502,91,128918,117373
6375,502,91,128937,117373
6378,502,91,128953,117378
6380,502,91,128960,117385
6383,502,91,128970,117382
6385,502,91,128976,117382
6387,502,91,128983,117382
6390,502,91,128976,117383
6392,503,91,128968,117382
6395,503,91,128972,117371
6397,503,91,128961,117375
6401,503,91,128961,117371
6403,503,91,128938,117360
6405,504,91,128918,117360
6408,504,91,128913,117348
6410,504,91,128903,117333
6413,504,91,128881,117336
6415,505,91,128859,117325
6418,505,91,128833,117317
6420,504,91,128816,117299
6423,504,91,128816,117298
6425,504,91,128766,117289
6427,504,91,128744,117289
6430,505,91,128735,117267
6432,505,91,128702,117259
6435,504,91,128702,117244
6437,504,91,128646,117232
6440,505,91,128629,117232
6443,505,91,128613,117219
6445,505,91,128613,117208
6448,505,91,128572,117193
6450,505,91,128548,117193
6453,506,91,128533,117183
6455,507,91,128514,117173
6458,507,91,128514,117175
6460,507,91,128481,117164
6463,507,91,128474,117164
6465,508,91,128456,117157
6467,508,91,128456,117148
6470,508,91,128436,117153
6472,508,91,128421,117153
6475,508,91,128419,117145
6477,508,91,128411,117137
6480,508,91,128402,117141
6482,508,91,128402,117136
6484,508,91,128407,117135
6488,508,91,128399,117132
6490,508,91,128398,117132
6493,508,91,128402,117137
6495,508,91,128402,117140
6498,509,91,128405,117140
6500,509,91,128415,117140
6503,509,91,128418,117150
6505,508,91,128418,117149
6507,508,91,128419,117152
6510,508,91,128429,117159
6512,508,91,128429,117156
6515,508,91,128454,117163
6517,508,91,128463,117163
6520,508,91,128474,117165
6522,509,91,128474,117174
6524,510,91,128491,117190
6528,511,91,128530,117200
6530,511,91,128534,117200
6533,511,91,128534,117206
6535,512,91,128566,117206
6538,513,91,128584,117220
6540,515,91,128584,117229
6543,516,91,128605,117234
6545,517,91,128644,117234
6547,518,91,128665,117252
6550,519,91,128665,117265
6552,518,91,128691,117274
6555,518,91,128732,117274
6557,518,91,128758,117289
6560,518,91,128758,117305
6562,518,91,128797,117305
6564,518,91,128825,117318
6567,519,91,128825,117332
6569,520,91,128844,117341
6573,521,91,128900,117341
6575,522,91,128917,117350
6578,522,91,128917,117373
6580,521,90,128948,117385
6583,520,91,128995,117385
6585,519,91,128995,117407
6587,517,91,129023,117412
6590,517,91,129067,117430
6592,515,91,129067,117431
6595,515,91,129122,117431
6597,514,91,129145,117449
6600,512,91,129145,117468
6602,510,91,129179,117482
6604,509,91,129197,117482
6607,508,91,129255,117487
6609,507,91,129280,117505
6612,506,91,129280,117518
6615,505,91,129303,117533
6618,504,91,129345,117533
6620,504,91,129364,117541
6623,504,91,129364,117560
6625,504,91,129393,117568
6627,504,91,129413,117568
6630,504,91,129435,117577
6632,504,91,129463,117590
6635,504,91,129490,117596
6637,504,91,129521,117611
6640,504,91,129553,117618
6642,503,91,129583,117633
6644,503,91,129583,117647
6647,503,91,129605,117654
6649,504,90,129629,117654
6652,503,90,129655,117657
6654,503,91,129664,117674
6658,503,90,129684,117681
6660,504,90,129701,117691
6663,504,90,129755,117698
6665,505,90,129784,117714
6667,505,90,129784,117730
6670,505,91,129794,117730
6672,506,91,129810,117727
6675,506,90,129836,117744
6677,506,90,129846,117745
6680,506,90,129866,117759
6682,504,91,129889,117768
6684,500,90,129908,117774
6687,495,91,129928,117779
6689,490,90,129949,117786
6692,484,90,129969,117790
6694,480,90,129969,117794
6697,483,91,129988,117801
6700,491,91,130003,117812
6703,502,90,130027,117818
6705,531,90,130047,117821
6707,551,90,130056,117827
6710,569,90,130070,117835
6712,592,91,130071,117835
6715,617,90,130101,117849
6717,663,91,130102,117853
6720,686,91,130115,117862
6722,706,91,130136,117861
6724,730,91,130140,117855
6727,763,91,130162,117870
6729,767,91,130177,117870
6732,761,91,130187,117884
6734,741,91,130190,117887
6737,712,91,130207,117886
6739,643,91,130223,117892
6743,602,91,130231,117901
6745,569,91,130245,117904
6747,529,91,130253,117912
6750,470,91,130263,117906
6752,450,91,130267,117910
6755,441,91,130271,117916
6757,433,91,130294,117919
6760,429,91,130292,117923
6762,433,91,130310,117926
6764,437,91,130297,117931
6767,442,91,130312,117933
6769,447,91,130334,117939
6772,452,90,130336,117936
6774,457,91,130347,117941
6777,459,90,130343,117946
6779,461,90,130341,117947
6782,463,90,130361,117950
6785,467,90,130366,117957
6787,468,90,130369,117954
6790,470,90,130380,117952
6792,471,90,130380,117956
6795,473,90,130382,117955
6797,474,90,130395,117971
6800,475,90,130383,117966
6802,477,91,130392,117967
6804,478,90,130406,117971
6807,479,90,130403,117970
6809,480,90,130410,117971
6812,482,90,130409,117968
6814,483,90,130407,117976
6817,484,90,130420,117977
6819,485,90,130428,117974
6822,486,90,130426,117982
6824,488,90,130430,117981
6827,489,90,130439,117982
6830,490,90,130438,117993
6832,491,90,130446,117994
6835,492,90,130454,117994
6837,493,90,130458,117993
6840,494,90,130463,117993
6842,496,90,130466,117994
6844,497,90,130472,117999
6847,498,90,130467,118000
6849,499,90,130487,118012
6852,501,90,130493,118005
6854,501,90,130495,118007
6857,502,90,130503,118014
6859,503,90,130507,118013
6862,504,90,130510,118016
6864,506,90,130526,118022
6866,507,90,130527,118018
6870,508,90,130548,118027
6872,509,90,130547,118025
6875,511,90,130552,118032
6877,512,90,130561,118036
6880,513,90,130561,118033
6882,513,90,130575,118042
6884,514,90,130588,118042
6887,515,90,130609,118052
6889,517,90,130614,118055
6892,518,90,130628,118054
6894,520,90,130621,118064
6897,521,90,130636,118064
6899,523,90,130644,118072
6902,524,90,130644,118070
6904,525,90,130665,118076
6906,526,90,130673,118076
6909,529,90,130694,118092
6912,531,90,130698,118086
6915,532,90,130698,118091
6917,533,90,130717,118100
6920,535,90,130728,118100
6922,537,90,130740,118105
6924,538,90,130740,118100
6927,540,90,130749,118117
6929,542,90,130765,118117
6932,543,90,130775,118123
6934,546,90,130791,118120
6937,547,90,130791,118126
6939,549,90,130779,118127
6942,550,90,130780,118127
6944,552,90,130770,118107
6946,553,90,130770,118103
6949,554,90,130736,118088
6951,554,90,130701,118088
6955,555,90,130669,118077
6957,555,90,130616,118026
6960,556,90,130552,117998
6962,556,90,130552,117960
6964,556,90,130484,117926
6967,555,90,130300,117885
6969,555,90,130193,117885
6972,553,90,130075,117775
6974,551,90,130075,117720
6977,549,90,129938,117654
6979,547,90,129647,117654
6982,545,90,129479,117602
6984,540,90,129479,117464
6986,537,90,129320,117397
6989,534,90,128997,117327
6991,529,90,128997,117265
6994,524,90,128689,117208
6996,521,90,128547,117208
7000,517,90,128422,117153
7002,508,90,128422,117061
7004,504,90,128309,117021
7007,500,90,128126,117021
7009,496,90,128031,116988
7012,489,90,127979,116930
7014,487,90,127913,116930
7017,483,90,127869,116892
7019,477,90,127869,116873
7022,474,90,127825,116860
7024,472,90,127751,116847
7026,470,90,127751,116831
7029,469,90,127684,116831
7031,466,90,127670,116823
7034,465,90,127651,116815
7036,464,90,127651,116804
7040,463,90,127628,116804
7042,463,90,127619,116801
7044,462,90,127610,116798
7047,462,90,127610,116796
7049,462,90,127607,116800
7052,462,90,127609,116800
7054,462,90,127615,116803
7057,463,90,127615,116806
7059,464,90,127626,116806
7062,465,90,127626,116810
7064,466,90,127633,116818
7066,467,90,127646,116818
7069,468,90,127677,116831
7071,468,90,127690,116839
7074,470,90,127690,116851
7076,470,90,127720,116856
7079,471,90,127748,116856
7081,472,90,127772,116871
7084,473,90,127772,116890
7087,475,90,127801,116908
7089,476,90,127829,116908
7092,477,90,127895,116921
7094,478,90,127925,116929
7097,479,90,127925,116966
7099,480,90,127957,116976
7102,481,90,128019,116976
7104,481,90,128019,117002
7106,483,90,128061,117002
7109,484,90,128137,117018
7111,484,90,128170,117041
7114,485,90,128170,117070
7116,486,90,128215,117086
7119,486,90,128247,117086
7121,486,90,128293,117103
7123,487,90,128316,117123
7127,488,90,128368,117139
7129,489,90,128405,117153
7132,489,90,128495,117170
7134,490,90,128495,117203
7137,490,90,128528,117203
7139,490,90,128565,117221
7142,491,90,128611,117236
7144,491,90,128644,117250
7146,492,90,128688,117268
7149,493,90,128730,117280
7151,495,90,128773,117300
7154,495,90,128804,117310
7156,495,90,128832,117324
7159,495,90,128866,117343
7161,496,90,128899,117351
7163,496,90,128931,117367
7166,496,90,128976,117386
7169,496,90,129011,117399
7172,496,90,129034,117422
7174,497,90,129072,117429
7177,497,90,129106,117437
7179,498,90,129139,117450
7182,498,90,129175,117469
7184,498,90,129208,117483
7186,498,90,129233,117501
7189,499,90,129264,117514
7191,499,90,129297,117519
7194,499,90,129330,117531
7196,500,90,129372,117540
7199,500,90,129402,117563
7201,500,90,129432,117568
7203,501,90,129453,117586
7206,501,90,129473,117588
7208,501,90,129487,117599
7212,502,90,129518,117605
7214,502,90,129537,117615
7217,502,90,129556,117628
7219,502,90,129569,117630
7222,503,90,129576,117633
7224,503,90,129603,117635
7226,503,90,129612,117644
7229,503,90,129620,117643
7231,503,90,129626,117643
7234,503,90,129620,117639
7236,504,90,129614,117645
7239,504,90,129612,117646
7241,504,90,129606,117638
7243,504,90,129598,117636
7246,504,90,129582,117635
7248,505,90,129582,117625
7251,505,90,129566,117616
7254,504,90,129547,117610
7257,505,90,129526,117594
7259,505,90,129515,117591
7262,505,90,129487,117580
7264,505,90,129469,117580
7266,505,90,129456,117562
7269,506,90,129422,117558
7271,506,90,129397,117545
7274,507,90,129374,117537
7276,507,90,129345,117518
7279,507,90,129320,117510
7281,507,90,129291,117501
7283,507,90,129261,117487
7286,507,90,129241,117470
7288,507,90,129208,117467
7291,507,90,129182,117449
7293,507,90,129155,117441
7297,508,90,129126,117429
7299,508,90,129101,117425
7302,508,90,129093,117411
7304,508,90,129071,117408
7306,508,90,129053,117393
7309,508,90,129030,117390
7311,509,90,129006,117383
7314,509,90,128994,117373
7316,509,90,128982,117372
7319,509,90,128964,117366
7321,509,90,128958,117367
7323,509,91,128950,117363
7326,509,90,128948,117356
7328,509,90,128936,117356
7331,509,90,128928,117361
7333,509,90,128931,117351
7336,509,90,128927,117351
7339,509,91,128938,117358
7342,509,90,128931,117346
7344,510,90,128944,117360
7346,510,90,128944,117359
7349,511,90,128943,117358
7351,512,90,128958,117365
7354,512,91,128958,117365
7356,513,90,128965,117374
7359,514,90,128978,117374
7361,516,90,129002,117382
7363,516,90,129013,117391
7366,518,91,129030,117396
7368,518,91,129030,117403
7371,519,91,129049,117412
7373,519,91,129064,117418
7376,518,90,129064,117421
7378,519,90,129094,117426
7382,519,90,129115,117426
7384,519,91,129144,117453
7386,520,91,129159,117453
7389,520,91,129180,117466
7391,521,91,129180,117476
7394,521,91,129215,117489
7396,522,91,129247,117489
7399,523,91,129267,117502
7401,522,91,129292,117507
7403,521,91,129292,117527
7406,520,91,129336,117531
7408,519,91,129360,117531
7411,516,91,129378,117549
7413,516,91,129378,117561
7416,515,91,129407,117570
7418,514,90,129454,117570
7421,513,91,129484,117582
7424,511,91,129506,117605
7426,509,91,129506,117614
7429,508,91,129565,117628
7431,507,91,129583,117628
7434,506,91,129606,117644
7436,503,90,129606,117656
7439,503,90,129637,117668
7441,503,91,129677,117668
7443,503,91,129714,117676
7446,503,91,129733,117698
7448,503,90,129733,117712
7451,503,90,129789,117724
7453,502,90,129812,117724
7456,502,91,129834,117727
7458,502,90,129834,117750
7461,502,90,129857,117762
7463,503,90,129907,117762
7465,503,91,129939,117771
7469,503,90,129954,117783
7471,504,91,129979,117783
7474,505,90,129989,117806
7476,504,91,129989,117823
7479,504,91,130036,117830
7481,504,91,130069,117844
7483,504,91,130069,117844
7486,504,90,130109,117844
7488,504,91,130143,117856
7491,505,90,130158,117863
7493,505,90,130158,117881
7496,505,90,130198,117881
7498,505,91,130198,117889
7501,505,90,130221,117900
7503,504,91,130260,117900
7505,502,91,130279,117909
7508,494,91,130295,117928
7511,490,90,130316,117928
7514,482,90,130316,117948
7516,481,90,130337,117949
7519,483,90,130372,117949
7521,495,91,130372,117969
7523,509,90,130398,117975
7526,521,90,130430,117975
7528,550,90,130430,117987
7531,576,90,130444,117992
7533,604,90,130464,118000
7536,626,91,130483,118000
7538,646,91,130522,118010
7541,686,91,130522,118019
7543,702,91,130550,118019
7545,724,91,130566,118025
7548,751,91,130566,118045
7550,756,91,130577,118050
7554,749,91,130609,118050
7556,730,91,130626,118050
7559,679,91,130626,118069
7561,638,91,130641,118072
7563,607,91,130649,118072
7566,569,91,130679,118081
7568,539,91,130693,118086
7571,480,91,130693,118096
7573,458,91,130707,118096
7576,444,91,130722,118098
7578,436,91,130737,118110
7581,432,90,130737,118107
7583,432,91,130754,118116
7585,435,90,130759,118116
7588,440,91,130768,118122
7590,445,90,130776,118120
7593,449,91,130789,118126
7596,456,90,130807,118137
7599,459,90,130824,118136
7601,462,90,130833,118143
7603,464,90,130833,118145
7606,465,90,130846,118145
7608,467,90,130847,118155
7611,469,90,130861,118160
7613,472,90,130877,118157
7616,473,90,130881,118160
7618,474,90,130886,118161
7621,475,90,130887,118167
7623,476,90,130895,118171
7625,478,90,130900,118170
7628,479,90,130911,118175
7630,480,90,130916,118180
7633,482,90,130932,118185
7635,483,90,130931,118179
7639,484,90,130940,118190
7641,485,90,130940,118185
7643,485,90,130950,118194
7646,487,90,130955,118196
7648,488,90,130960,118196
7651,490,90,130955,118203
7653,492,90,130970,118205
7656,492,90,130965,118203
7658,493,90,130972,118202
7661,494,90,130985,118206
7663,496,90,130991,118209
7665,497,90,131010,118212
7668,498,90,130996,118211
7670,499,90,131006,118212
7673,500,90,131013,118214
7675,501,90,131018,118222
7678,501,90,131020,118220
7681,503,90,131025,118226
7683,504,90,131028,118228
7686,506,89,131046,118226
7688,507,90,131049,118232
7691,508,90,131061,118237
7693,509,90,131060,118229
7696,510,90,131060,118238
7698,511,90,131063,118242
7701,512,90,131076,118243
7703,514,89,130886,118243
7705,515,90,130885,118246
7708,515,90,130893,118243
7710,516,89,130910,118249
7713,518,89,130906,118256
7715,519,90,130915,118251
7718,520,90,130916,118254
7720,522,90,130927,118252
7723,523,89,130938,118266
7726,524,90,130934,118267
7728,525,90,130948,118271
7731,528,89,130950,118271
7733,529,89,130957,118285
7736,531,90,130970,118280
7738,532,89,130984,118281
7741,534,89,130978,118281
7743,537,89,130994,118290
7745,538,89,131001,118299
7748,540,89,131002,118292
7750,541,89,131014,118300
7753,542,89,131018,118295
7755,545,89,131019,118306
7758,546,89,131029,118306
7760,548,89,131026,118309
7762,550,89,131032,118303
7766,550,89,131024,118297
7768,552,89,131013,118293
7771,553,89,130990,118265
7773,553,89,130981,118275
7776,554,89,130951,118256
7778,554,89,130914,118241
7781,554,89,130864,118217
7783,554,89,130821,118189
7785,554,89,130750,118156
7788,553,89,130680,118128
7790,553,89,130592,118082
7793,551,89,130501,118037
7795,550,89,130394,117993
7798,548,89,130272,117941
7800,547,89,130137,117888
7802,544,89,130000,117888
7805,539,89,129844,117761
7808,536,89,129696,117688
7811,533,89,129537,117633
7813,529,89,129383,117562
7816,526,89,129223,117503
7818,518,89,129080,117444
7821,514,89,129080,117385
7823,509,89,128792,117334
7825,506,89,128666,117334
7828,498,89,128547,117246
7830,494,89,128445,117195
7833,491,89,128445,117162
7835,487,89,128272,117133
7838,484,89,128200,117133
7840,478,88,128144,117083
7842,476,88,128080,117059
7845,473,88,128031,117043
7847,471,88,128031,117027
7851,469,88,127952,117014
7853,467,89,127920,117004
7856,466,88,127920,117003
7858,465,88,127884,116987
7861,464,88,127868,116987
7863,463,88,127856,116985
7865,463,88,127847,116978
7868,463,88,127838,116977
7870,463,88,127838,116976
7873,464,88,127833,116974
7875,464,88,127824,116976
7878,464,88,127824,116980
7880,465,88,127845,116985
7882,466,88,127852,116985
7885,467,88,127863,116999
7887,468,88,127863,117002
7890,469,88,127888,117007
7892,470,88,127904,117007
7896,471,88,127928,117023
7898,472,88,127951,117027
7901,473,88,127963,117046
7903,474,88,127995,117056
7905,475,88,128017,117056
7908,476,88,128051,117076
7910,477,88,128051,117095
7913,477,88,128088,117101
7915,478,88,128137,117101
7918,479,88,128175,117120
7920,480,88,128175,117150
7922,481,87,128213,117166
7925,482,87,128283,117166
7927,483,87,128322,117180
7930,484,88,128362,117212
7932,485,87,128362,117239
7936,485,87,128407,117253
7938,486,87,128494,117253
7941,486,87,128540,117274
7943,487,87,128540,117303
7945,488,87,128577,117324
7948,488,87,128663,117324
7950,489,87,128702,117339
7953,490,87,128764,117371
7955,490,87,128764,117401
7958,491,87,128844,117420
7960,492,87,128883,117420
7962,492,87,128930,117431
7965,492,87,128930,117465
7967,493,87,128980,117481
7970,493,87,129050,117481
7972,494,87,129095,117501
7975,494,87,129095,117538
7977,495,87,129177,117538
7981,495,87,129215,117553
7983,496,86,129215,117584
7985,496,86,129259,117603
7988,496,86,129337,117603
7990,496,87,129373,117618
7993,496,86,129373,117653
7995,496,86,129414,117667
7998,496,86,129481,117667
8000,497,86,129520,117685
8002,497,86,129555,117695
8005,498,86,129555,117719
8007,498,86,129591,117736
8010,498,86,129659,117736
8012,499,86,129692,117754
8015,499,86,129692,117778
8017,500,86,129728,117790
8020,500,86,129758,117790
8023,501,86,129830,117810
8025,501,86,129855,117822
8028,500,86,129855,117839
8030,500,86,129893,117858
8033,501,86,129937,117858
8035,501,86,129959,117867
8038,501,86,129959,117883
8040,502,86,129982,117888
8042,502,86,129995,117888
8045,502,86,130003,117895
8047,503,85,130017,117902
8050,503,86,130041,117909
8052,503,85,130042,117903
8055,503,85,130060,117909
8057,503,85,130062,117914
8060,503,85,130062,117913
8062,503,85,130062,117914
8065,504,85,130055,117914
8068,504,85,130053,117909
8070,504,85,130046,117903
8073,504,85,130031,117896
8075,505,85,130020,117888
8078,505,85,129994,117880
8080,505,85,129977,117868
8082,505,85,129977,117855
8085,505,85,129957,117855
8087,505,85,129927,117847
8090,505,85,129917,117839
8092,506,84,129887,117821
8095,506,84,129856,117814
8097,506,84,129827,117792
8100,506,84,129800,117786
8102,506,84,129770,117770
8104,506,84,129735,117760
8108,506,84,129702,117757
8110,507,84,129675,117738
8113,507,84,129643,117725
8115,507,84,129617,117707
8118,507,84,129589,117688
8120,508,84,129562,117678
8122,508,84,129529,117670
8125,508,84,129502,117661
8127,508,84,129469,117652
8130,508,84,129444,117636
8132,508,84,129428,117632
8135,508,84,129408,117623
8137,509,84,129377,117617
8140,509,83,129362,117607
8142,510,83,129347,117602
8144,510,83,129337,117592
8147,511,83,129325,117586
8150,512,83,129323,117591
8153,512,83,129300,117589
8155,513,83,129287,117580
8158,514,83,129279,117578
8160,516,83,129267,117577
8162,517,83,129261,117574
8165,517,83,129273,117574
8167,516,83,129278,117576
8170,516,83,129269,117574
8172,517,83,129277,117581
8175,517,83,129282,117586
8177,518,83,129280,117579
8180,518,82,129284,117588
8182,520,82,129290,117587
8184,520,82,129305,117600
8187,521,82,129308,117598
8189,521,82,129327,117607
8193,521,82,129328,117612
8195,521,82,129349,117618
8198,520,82,129357,117622
8200,518,82,129369,117626
8202,517,82,129396,117626
8205,517,82,129406,117639
8207,516,82,129427,117654
8210,515,82,129435,117660
8212,513,82,129454,117675
8215,512,82,129479,117677
8217,511,82,129507,117685
8220,510,82,129509,117692
8222,507,81,129534,117701
8224,506,81,129564,117719
8227,505,81,129585,117730
8229,504,81,129608,117738
8232,504,81,129626,117749
8235,504,81,129655,117750
8238,503,81,129674,117756
8240,504,81,129704,117777
8242,504,81,129727,117784
8245,503,81,129755,117797
8247,503,81,129778,117811
8250,503,81,129802,117814
8252,503,81,129836,117828
8255,503,81,129860,117836
8257,503,81,129891,117849
8260,503,81,129909,117855
8262,503,80,129930,117869
8264,503,80,129963,117884
8267,503,80,129999,117892
8269,503,80,130010,117900
8272,504,80,130037,117907
8274,504,80,130064,117916
8278,504,80,130064,117932
8280,504,80,130111,117944
8282,505,80,130141,117944
8285,505,80,130169,117967
8287,506,80,130194,117969
8290,506,80,130220,117983
8292,505,80,130243,117996
8295,505,80,130258,118007
8297,500,80,130292,118016
8300,496,80,130292,118022
8302,490,79,130331,118029
8304,485,80,130351,118029
8307,479,79,130392,118057
8309,482,79,130409,118054
8312,488,79,130409,118073
8314,500,79,130456,118083
8317,511,79,130474,118083
8320,542,79,130502,118097
8322,557,79,130510,118103
8325,594,79,130538,118117
8327,616,79,130538,118125
8330,644,79,130572,118125
8332,678,79,130598,118132
8335,698,79,130598,118145
8337,723,79,130629,118152
8340,739,79,130650,118152
8342,756,79,130673,118176
8344,751,79,130673,118176
8347,731,79,130712,118179
8349,710,79,130727,118179
8352,683,79,130754,118191
8354,618,79,130771,118207
8357,593,79,130785,118217
8359,531,79,130785,118224
8361,494,78,130791,118229
8365,464,78,130826,118237
8367,452,79,130840,118237
8370,433,78,130857,118248
8372,429,78,130857,118256
8375,428,78,130875,118259
8377,430,78,130899,118259
8380,435,78,130927,118269
8382,445,78,130933,118272
8384,448,78,130933,118276
8387,453,78,130957,118294
8389,456,78,130976,118294
8392,459,77,130978,118298
8394,463,78,130978,118309
8397,464,77,130998,118307
8399,466,77,131016,118307
8401,467,77,131028,118314
8404,470,77,131028,118316
8407,472,77,131042,118326
8410,473,77,131066,118326
8412,474,77,131071,118327
8415,475,77,131086,118341
8417,478,77,131086,118339
8420,479,77,131089,118342
8422,480,77,131104,118342
8424,481,77,131126,118347
8427,482,77,131124,118350
8429,483,77,131129,118350
8432,485,77,131129,118359
8434,486,77,131135,118362
8437,487,77,131156,118362
8439,489,77,131156,118371
8441,490,77,131175,118374
8444,491,77,131177,118374
8446,492,76,131188,118372
8450,494,76,131187,118381
8452,495,76,131204,118381
8455,496,76,131204,118383
8457,497,76,131206,118385
8460,497,76,131214,118385
8462,498,77,131214,118384
8464,499,76,131232,118395
8467,500,76,131226,118395
8469,501,76,131238,118401
8472,503,76,131238,118401
8474,504,76,131248,118398
8477,505,76,131245,118398
8479,505,76,131264,118401
8481,507,76,131264,118407
8484,508,76,131267,118407
8486,509,76,131269,118410
8489,510,76,131269,118416
8492,511,76,131286,118422
8495,512,76,131295,118422
8497,513,76,131300,118421
8500,515,76,131300,118424
8502,516,76,131305,118428
8504,518,76,131308,118428
8507,518,76,131336,118434
8509,519,76,131329,118440
8512,522,76,131329,118435
8514,523,76,131339,118443
8517,524,76,131344,118443
8519,525,76,131346,118434
8521,527,76,131346,118450
8524,529,76,131358,118444
8526,531,76,131363,118444
8529,532,75,131365,118442
8531,533,75,131375,118455
8535,534,76,131382,118455
8537,538,75,131391,118456
8540,539,76,131406,118461
8542,540,75,131406,118464
8544,543,75,131404,118464
8547,544,75,131409,118471
8549,545,75,131406,118464
8552,547,75,131408,118466
8554,549,75,131418,118460
8557,550,75,131400,118458
8559,551,75,131396,118455
8561,552,75,131379,118454
8564,552,75,131376,118444
8566,553,75,131342,118432
8569,554,75,131308,118411
8571,554,75,131275,118384
8574,554,75,131228,118364
8577,553,75,131171,118334
8580,553,75,131106,118300
8582,552,75,131013,118263
8584,552,75,130923,118220
8587,550,75,130824,118174
8589,547,75,130714,118128
8592,545,75,130584,118073
8594,542,75,130465,118007
8597,540,75,130311,117954
8599,534,75,130179,117889
8601,531,75,130023,117828
8604,528,75,129858,117755
8606,524,75,129699,117698
8609,519,74,129539,117634
8611,514,75,129395,117575
8614,509,74,129247,117520
8616,501,75,129104,117468
8620,498,74,128970,117422
8622,494,74,128852,117365
8624,490,74,128749,117337
8627,483,74,128669,117297
8629,480,74,128572,117264
8632,478,74,128494,117233
8634,475,74,128423,117206
8637,473,74,128365,117189
8639,469,74,128303,117164
8641,468,74,128274,117152
8644,467,74,128236,117133
8646,465,74,128209,117125
8649,464,74,128190,117112
8651,463,74,128161,117109
8654,463,74,128135,117106
8656,463,74,128129,117096
8659,463,74,128118,117090
8662,463,74,128104,117094
8664,463,74,128101,117091
8667,464,74,128102,117094
8669,464,74,128115,117095
8672,465,74,128107,117092
8674,465,74,128120,117109
8677,466,74,128131,117113
8679,467,74,128136,117117
8681,468,74,128154,117122
8684,469,74,128169,117127
8686,469,74,128178,117134
8689,472,74,128190,117143
8691,472,74,128212,117156
8694,474,74,128236,117154
8696,474,73,128264,117170
8699,475,74,128272,117178
8701,476,74,128308,117200
8704,477,74,128336,117207
8707,478,73,128363,117216
8709,479,73,128402,117244
8712,479,74,128426,117247
8714,480,73,128470,117272
8717,481,73,128505,117274
8719,482,73,128523,117300
8721,483,73,128580,117313
8724,483,73,128622,117326
8726,484,73,128649,117344
8729,485,73,128692,117338
8731,486,73,128734,117375
8734,487,73,128774,117400
8736,488,73,128812,117415
8739,488,73,128859,117428
8741,489,73,128898,117447
8743,489,73,128940,117463
8747,489,73,128980,117474
8749,490,73,129018,117495
8752,491,73,129064,117509
8754,492,73,129104,117529
8757,492,73,129104,117554
8759,493,73,129180,117562
8761,493,73,129217,117562
8764,494,73,129266,117598
8766,494,73,129303,117606
8769,494,73,129338,117622
8771,494,73,129374,117638
8774,495,73,129410,117651
8776,496,73,129449,117669
8779,495,73,129449,117679
8781,496,73,129522,117696
8783,496,73,129553,117696
8786,496,73,129593,117731
8788,497,73,129628,117739
8792,497,73,129628,117751
8794,497,73,129684,117770
8797,497,73,129729,117770
8799,498,73,129763,117800
8801,498,73,129763,117805
8804,499,73,129828,117820
8806,499,73,129853,117820
8809,499,73,129893,117851
8811,499,73,129923,117856
8814,499,73,129923,117877
8816,500,73,129992,117885
8819,500,73,130006,117885
8821,500,73,130036,117909
8823,500,73,130036,117916
8826,500,73,130083,117924
8828,501,73,130104,117924
8832,501,73,130130,117934
8834,500,73,130146,117947
8837,501,73,130154,117955
8839,501,73,130154,117956
8841,501,73,130169,117961
8844,502,73,130180,117960
8846,502,73,130187,117960
8849,502,73,130198,117955
8851,502,72,130198,117960
8854,502,72,130202,117960
8856,503,73,130181,117960
8859,502,73,130180,117961
8861,503,73,130180,117954
8863,503,72,130171,117949
8866,503,73,130146,117950
8868,504,73,130146,117935
8871,503,73,130118,117927
8873,504,72,130099,117927
8877,504,72,130074,117919
8879,504,72,130074,117893
8881,504,72,130058,117887
8884,505,72,130006,117887
8886,504,72,129986,117876
8889,505,72,129954,117860
8891,505,73,129932,117860
8894,504,72,129904,117826
8896,505,72,129904,117821
8899,505,72,129878,117802
8901,506,72,129826,117791
8903,506,72,129826,117786
8906,506,72,129763,117786
8908,507,72,129718,117776
8911,507,72,129713,117756
8913,509,72,129713,117740
8916,510,72,129668,117732
8919,511,72,129636,117732
8921,512,73,129625,117721
8924,514,72,129625,117708
8926,515,72,129598,117697
8929,515,72,129552,117697
8931,515,72,129546,117693
8934,515,72,129546,117681
8936,515,72,129515,117681
8939,515,72,129500,117676
8941,516,72,129500,117663
8943,517,72,129488,117656
8946,518,72,129485,117656
8948,518,72,129475,117661
8951,520,72,129475,117652
8953,521,72,129468,117656
8956,522,72,129456,117656
8958,522,72,129469,117660
8961,521,72,129464,117665
8964,519,72,129464,117666
8966,518,72,129473,117659
8969,517,72,129480,117659
8971,516,72,129488,117669
8974,514,72,129488,117676
8976,514,72,129511,117688
8979,513,72,129506,117688
8981,512,72,129532,117689
8983,511,72,129548,117698
8986,508,72,129548,117706
8988,506,72,129563,117709
8991,505,72,129595,117709
8993,504,72,129608,117720
8996,503,72,129608,117735
8998,502,72,129630,117738
9000,503,72,129636,117738
9004,502,72,129663,117756
9006,503,72,129685,117765
9009,502,72,129707,117770
9011,503,72,129726,117782
9014,503,72,129770,117783
9016,502,72,129795,117800
9019,502,72,129795,117815
9021,503,72,129822,117815
9023,503,72,129834,117824
9026,503,72,129848,117835
9028,503,72,129897,117844
9031,503,72,129913,117857
9033,503,72,129953,117863
9036,503,72,129964,117867
9038,503,72,129989,117884
9040,503,72,130012,117899
9043,504,72,130040,117905
9046,504,72,130054,117920
9049,505,72,130083,117926
9051,505,72,130110,117934
9054,505,72,130148,117950
9056,505,72,130165,117961
9059,505,72,130197,117963
9061,504,72,130212,117972
9063,503,72,130236,117986
9066,499,72,130260,117997
9068,490,72,130284,118008
9071,485,72,130310,118023
9073,481,72,130342,118032
9076,480,72,130378,118039
9078,484,72,130390,118051
9080,495,72,130419,118053
9083,521,72,130449,118069
9085,535,72,130465,118075
9089,554,72,130484,118092
9091,573,72,130505,118102
9094,602,72,130527,118109
9096,646,72,130549,118109
9099,670,72,130570,118123
9101,694,72,130589,118130
9103,717,72,130610,118142
9106,739,72,130642,118145
9108,754,72,130659,118151
9111,756,73,130680,118159
9113,732,73,130696,118172
9116,709,72,130722,118184
9118,676,73,130737,118187
9120,640,72,130756,118198
9123,569,72,130768,118205
9125,538,72,130788,118222
9128,510,72,130812,118219
9131,477,72,130835,118225
9134,453,72,130849,118236
9136,436,72,130873,118243
9139,431,73,130889,118254
9141,429,72,130905,118256
9143,431,72,130925,118269
9146,435,72,130943,118281
9148,441,72,130958,118283
9151,447,72,130973,118294
9153,453,72,130989,118291
9156,456,72,131016,118300
9158,459,72,131021,118302
9160,461,72,131035,118313
9163,464,72,131046,118318
9165,466,72,131056,118322
9168,467,72,131071,118322
9170,469,72,131077,118334
9174,471,72,131096,118345
9176,473,72,131103,118345
9179,475,72,131131,118348
9181,475,72,131145,118353
9183,477,72,131155,118360
9186,478,72,131154,118358
9188,479,72,131160,118365
9191,481,72,131170,118372
9193,482,72,131193,118383
9196,483,72,131203,118384
9198,485,72,131209,118387
9200,486,72,131230,118394
9203,487,72,131240,118403
9205,488,72,131245,118381
9208,490,72,131258,118405
9210,491,72,131267,118397
9213,492,72,131283,118413
9216,493,72,131280,118416
9219,494,72,131291,118419
9221,495,72,131308,118419
9223,496,72,131322,118424
9226,497,72,131330,118426
9228,498,72,131334,118429
9231,500,72,131340,118434
9233,501,72,131348,118431
9236,502,72,131348,118434
9238,502,72,131365,118440
9240,503,72,131371,118440
9243,504,72,131384,118452
9245,506,72,131387,118442
9248,506,72,131401,118454
9250,507,72,131407,118449
9253,508,72,131413,118458
9255,510,72,131418,118467
9259,511,72,131418,118471
9261,512,72,131436,118474
9263,513,73,131448,118474
9266,515,72,131464,118478
9268,516,72,131463,118481
9271,517,72,131463,118484
9273,519,72,131473,118481
9276,520,72,131481,118481
9278,523,72,131490,118492
9280,524,72,131490,118489
9283,525,72,131495,118493
9285,527,72,131505,118493
9288,528,72,131528,118506
9290,531,72,131524,118497
9293,532,72,131524,118513
9295,533,72,131540,118507
9298,534,72,131553,118507
9300,537,72,131551,118521
9303,538,72,131551,118521
9306,539,72,131559,118522
9308,541,72,131573,118522
9311,542,73,131574,118530
9313,544,72,131573,118519
9316,545,73,131576,118525
9318,548,72,131576,118528
9320,550,73,131580,118518
9323,551,73,131559,118513
9325,552,73,131554,118513
9328,553,73,131537,118492
9330,554,72,131537,118492
9333,554,72,131518,118475
9335,555,73,131443,118475
9338,554,73,131394,118456
9340,554,73,131394,118396
9342,554,73,131341,118366
9346,554,73,131187,118366
9348,553,73,131104,118332
9351,552,73,130996,118237
9353,550,73,130996,118181
9356,547,73,130885,118136
9358,546,73,130637,118136
9360,543,73,130493,118077
9363,538,73,130493,117955
9365,534,73,130338,117882
9368,531,73,130027,117882
9370,527,73,129874,117824
9373,523,73,129712,117764
9375,515,73,129712,117633
9378,510,73,129552,117568
9380,506,73,129255,117568
9382,502,73,129118,117532
9385,494,73,129118,117422
9388,489,73,129001,117381
9391,486,73,128788,117381
9393,482,73,128695,117344
9396,477,73,128695,117279
9398,475,73,128545,117279
9400,473,73,128488,117263
9403,470,73,128488,117221
9405,468,73,128440,117199
9408,467,73,128357,117199
9410,465,73,128317,117183
9413,463,73,128317,117159
9415,462,73,128294,117155
9418,462,73,128247,117155
9420,461,73,128247,117143
9422,461,73,128235,117137
9425,461,73,128205,117131
9427,461,73,128205,117129
9431,462,73,128189,117135
9433,462,73,128198,117137
9436,463,73,128198,117137
9438,464,73,128210,117144
9440,465,73,128210,117144
9443,466,73,128204,117144
9445,467,73,128228,117153
9448,468,73,128228,117156
9450,469,74,128226,117164
9453,470,73,128253,117164
9455,470,74,128281,117172
9458,471,73,128281,117185
9460,472,73,128317,117185
9462,473,73,128317,117203
9465,474,73,128345,117215
9467,476,74,128363,117239
9470,477,73,128388,117242
9473,477,73,128415,117255
9476,478,74,128453,117255
9478,479,74,128476,117268
9480,480,73,128506,117271
9483,481,74,128538,117295
9485,482,74,128572,117301
9488,483,74,128640,117320
9490,484,74,128640,117351
9493,485,74,128676,117366
9495,486,74,128701,117366
9498,486,74,128738,117377
9500,487,74,128774,117395
9502,488,74,128811,117406
9505,488,74,128848,117418
9507,490,74,128887,117437
9510,490,74,128930,117448
9512,491,74,128969,117472
9516,491,74,129017,117483
9518,492,74,129059,117503
9520,492,74,129100,117521
9523,492,74,129127,117534
9525,493,74,129172,117550
9528,493,74,129211,117562
9530,494,74,129250,117575
9533,495,74,129289,117591
9535,495,74,129324,117610
9538,495,74,129362,117630
9540,496,74,129397,117639
9542,496,74,129429,117655
9545,497,74,129465,117673
9547,498,74,129515,117687
9550,498,74,129545,117701
9552,498,74,129574,117712
9555,498,74,129616,117729
9558,499,74,129657,117750
9560,499,74,129687,117758
9563,499,74,129722,117764
9565,499,74,129756,117785
9568,499,74,129783,117800
9570,499,74,129821,117823
9573,500,74,129864,117832
9575,500,74,129897,117847
9578,500,74,129931,117867
9580,501,74,129964,117874
9582,501,74,129997,117884
9585,501,74,130028,117899
9587,501,74,130053,117909
9590,501,74,130078,117925
9592,502,74,130114,117929
9595,502,74,130129,117937
9597,502,74,130166,117947
9600,503,74,130171,117956
9603,503,74,130194,117960
9605,503,74,130214,117966
9608,503,74,130230,117976
9610,503,74,130241,117978
9613,503,74,130247,117987
9615,503,74,130253,117993
9618,503,74,130267,117989
9620,504,74,130252,117991
9622,504,74,130250,117993
9625,505,74,130262,117985
9627,505,74,130259,117977
9630,505,75,130245,117985
9632,506,74,130240,117976
9635,506,74,130234,117972
9637,507,75,130220,117961
9639,507,74,130218,117956
9643,507,75,130196,117950
9645,508,74,130177,117944
9648,511,75,130155,117931
9650,512,75,130123,117924
9653,513,75,130113,117914
9655,513,75,130098,117910
9658,514,75,130061,117897
9660,514,75,130043,117877
9662,514,75,130020,117880
9665,514,75,129992,117861
9667,514,75,129960,117850
9670,514,75,129932,117842
9672,515,75,129912,117830
9675,516,75,129888,117817
9677,518,75,129856,117806
9679,519,75,129837,117799
9682,519,75,129814,117792
9684,520,75,129791,117781
9688,520,75,129761,117771
9690,520,75,129745,117759
9693,519,75,129721,117754
9695,517,75,129694,117741
9698,517,75,129679,117733
9700,515,75,129664,117731
9702,514,75,129646,117726
9705,513,75,129634,117719
9707,512,75,129617,117713
9710,510,75,129612,117713
9712,509,75,129609,117702
9715,508,75,129609,117702
9717,506,75,129589,117702
9719,505,75,129588,117702
9722,503,75,129591,117711
9724,503,75,129584,117698
9728,503,75,129592,117706
9730,503,75,129583,117702
9733,503,75,129591,117709
9735,503,75,129598,117705
9738,502,75,129598,117709
9740,502,75,129602,117716
9742,502,75,129606,117716
9745,502,75,129631,117722
9747,502,75,129637,117725
9750,502,75,129637,117729
9752,502,75,129658,117732
9755,502,75,129677,117732
9757,502,75,129685,117749
9759,503,75,129685,117756
9762,503,75,129710,117758
9764,503,75,129727,117758
9767,503,75,129749,117780
9769,503,76,129762,117782
9773,504,75,129762,117797
9775,504,75,129803,117801
9778,505,76,129822,117801
9780,505,75,129838,117814
9782,505,76,129838,117825
9785,505,75,129878,117834
9787,505,75,129913,117834
9790,504,75,129928,117848
9792,501,76,129949,117857
9795,499,76,129969,117869
9797,492,76,129969,117881
9799,486,75,129993,117893
9802,481,76,130029,117894
9804,481,76,130057,117894
9807,492,76,130088,117912
9809,502,76,130088,117929
9812,518,76,130110,117944
9815,532,76,130162,117944
9818,550,76,130181,117948
9820,589,76,130181,117967
9822,618,76,130216,117978
9825,649,76,130254,117984
9827,672,76,130254,117992
9830,699,76,130294,118007
9832,718,76,130329,118007
9835,735,76,130346,118015
9837,757,76,130346,118041
9839,756,76,130376,118046
9842,742,76,130422,118046
9844,722,76,130445,118060
9847,663,76,130445,118074
9849,636,76,130486,118074
9852,597,76,130515,118088
9854,534,76,130515,118100
9858,497,76,130535,118100
9860,475,76,130582,118100
9862,453,76,130606,118126
9865,432,76,130606,118138
9867,427,76,130620,118142
9870,426,76,130660,118142
9872,427,76,130687,118150
9875,433,76,130687,118164
9877,437,76,130720,118164
9879,442,76,130736,118177
9882,450,76,130736,118187
9884,455,76,130756,118197
9887,458,76,130803,118197
9889,460,76,130816,118205
9892,464,76,130816,118220
9894,466,76,130832,118223
9897,468,76,130859,118223
9900,471,76,130859,118243
9902,472,76,130882,118245
9905,473,76,130909,118245
9907,476,76,130909,118254
9910,477,76,130931,118274
9912,478,76,130947,118265
9915,480,76,130959,118265
9917,481,76,130991,118270
9919,483,76,130991,118289
9922,484,76,131011,118289
9924,485,76,131011,118296
9927,487,76,131025,118304
9929,488,76,131045,118305
9932,488,76,131055,118305
9934,489,76,131083,118315
9937,490,76,131083,118323
9939,491,76,131103,118323
9942,492,76,131103,118337
9945,494,76,131115,118342
9947,495,76,131129,118336
9950,496,76,131143,118347
9952,497,76,131158,118352
9955,498,76,131162,118352
9957,499,76,131174,118357
9959,500,76,131180,118359
9962,501,76,131193,118361
9964,503,76,131205,118368
9967,503,76,131236,118373
9969,504,76,131236,118382
9972,505,76,131238,118382
9974,507,76,131241,118381
9977,508,76,131264,118390
9979,508,76,131254,118395
9981,510,76,131275,118397
9985,511,76,131285,118397
9987,514,76,131286,118397
9990,514,76,131301,118406
9992,516,76,131304,118403
9995,517,76,131309,118408
9997,518,76,131322,118410
9999,519,76,131332,118417
10002,521,76,131337,118415
10004,522,76,131360,118429
10007,522,76,131356,118435
10009,524,76,131373,118438
10012,524,76,131381,118436
10014,527,76,131390,118434
10017,528,76,131388,118434
10019,529,76,131401,118446
10021,530,77,131405,118449
10024,532,77,131404,118447
10027,534,76,131411,118449
10030,536,76,131421,118454
10032,537,76,131444,118454
10035,539,77,131451,118462
10037,541,76,131454,118465
10039,543,77,131466,118468
10042,546,76,131464,118471
10044,547,77,131465,118464
10047,548,76,131461,118456
10049,549,76,131465,118466
10052,550,77,131465,118467
10054,552,77,131449,118465
10057,553,77,131430,118452
10059,553,77,131425,118442
10061,554,77,131394,118425
10064,554,77,131361,118408
10066,554,77,131325,118386
10070,554,77,131275,118362
10072,553,77,131213,118330
10075,553,77,131143,118306
10077,552,77,131054,118256
10079,550,77,130979,118218
10082,548,77,130865,118176
10084,546,77,130748,118125
10087,544,77,130621,118065
10089,542,77,130489,118011
10092,538,77,130345,117944
10094,533,77,130192,117878
10097,529,77,130032,117819
10099,525,77,129879,117763
10101,521,77,129724,117700
10104,516,77,129557,117643
10106,510,77,129414,117584
10109,505,77,129273,117531
10112,498,77,129138,117484
10115,495,77,129025,117431
10117,490,77,128909,117392
10119,487,77,128812,117355
10122,480,77,128721,117326
10124,478,77,128645,117300
10127,476,77,128575,117265
10129,473,77,128513,117249
10132,471,77,128457,117219
10134,468,77,128413,117216
10137,467,77,128367,117189
10139,465,77,128333,117178
10141,464,77,128302,117171
10144,463,77,128271,117156
10146,463,77,128246,117150
10149,462,77,128231,117142
10151,462,77,128212,117133
10155,462,77,128192,117135
10157,462,77,128201,117135
10159,463,77,128183,117128
10162,464,77,128179,117132
10164,465,77,128179,117126
10167,465,77,128186,117129
10169,466,77,128176,117132
10172,466,77,128184,117132
10174,468,77,128191,117139
10177,469,77,128196,117140
10179,470,77,128213,117148
10181,471,77,128222,117152
10184,472,77,128237,117159
10186,473,77,128250,117160
10189,473,77,128250,117170
10191,474,77,128283,117181
10194,475,77,128295,117181
10196,477,77,128331,117199
10199,477,77,128345,117205
10202,479,77,128369,117216
10204,480,77,128369,117230
10207,480,77,128419,117245
10209,481,77,128445,117253
10212,482,77,128445,117258
10214,483,77,128500,117273
10217,484,77,128531,117273
10219,485,77,128576,117309
10221,486,77,128605,117310
10224,488,77,128636,117331
10226,488,77,128636,117345
10229,488,77,128696,117360
10231,489,77,128740,117380
10234,490,77,128740,117385
10236,490,77,128809,117406
10238,491,77,128842,117406
10242,492,77,128893,117435
10244,492,77,128893,117453
10247,493,77,128928,117467
10249,493,77,128999,117467
10252,494,77,129046,117486
10254,494,78,129075,117504
10257,494,77,129104,117529
10259,495,77,129151,117535
10261,495,78,129182,117535
10264,496,78,129224,117570
10266,497,78,129224,117591
10269,497,77,129268,117595
10271,498,77,129325,117595
10274,498,77,129374,117613
10276,498,77,129407,117637
10278,498,78,129407,117659
10281,498,78,129480,117659
10284,498,78,129514,117676
10287,498,77,129554,117699
10289,499,77,129554,117715
10292,499,78,129592,117738
10294,499,77,129659,117738
10297,499,78,129695,117746
10299,499,77,129695,117778
10301,499,77,129742,117791
10304,499,78,129805,117791
10306,500,78,129847,117803
10309,499,77,129872,117819
10311,500,77,129872,117847
10314,500,77,129940,117855
10316,500,78,129961,117855
10318,500,77,129999,117873
10321,501,77,130021,117892
10323,501,78,130047,117892
10327,502,77,130047,117903
10329,502,78,130064,117909
10332,502,77,130094,117909
10334,502,77,130094,117921
10337,503,77,130118,117923
10339,503,78,130128,117923
10341,503,77,130131,117927
10344,504,77,130136,117928
10346,504,77,130135,117928
10349,505,77,130135,117933
10351,506,77,130128,117923
10354,507,77,130123,117923
10356,509,77,130123,117917
10358,511,77,130117,117912
10361,512,78,130087,117912
10363,513,78,130087,117890
10366,513,77,130073,117891
10369,513,77,130057,117872
10372,513,78,130041,117872
10374,513,77,129996,117868
10377,513,77,129996,117840
10379,513,78,129936,117840
10381,514,78,129910,117843
10384,516,77,129910,117811
10386,517,77,129885,117792
10389,518,78,129828,117792
10391,519,77,129795,117792
10394,520,77,129795,117763
10396,519,77,129766,117749
10398,519,77,129740,117749
10401,517,78,129691,117745
10403,517,78,129647,117735
10406,515,78,129647,117702
10408,515,77,129635,117702
10412,515,78,129573,117690
10414,514,78,129548,117687
10417,513,77,129548,117666
10419,509,78,129532,117663
10421,508,78,129512,117663
10424,506,77,129491,117657
10426,504,78,129478,117641
10429,503,78,129459,117638
10431,502,78,129442,117633
10434,502,78,129426,117635
10436,502,77,129411,117628
10438,502,78,129411,117620
10441,502,77,129411,117620
10443,502,78,129404,117623
10446,502,78,129398,117619
10448,502,78,129402,117616
10451,501,78,129395,117617
10454,501,77,129396,117627
10457,501,78,129387,117626
10459,501,77,129403,117627
10461,502,78,129402,117630
10464,502,77,129398,117637
10466,502,78,129418,117633
10469,502,78,129423,117641
10471,502,77,129432,117644
10474,502,78,129441,117651
10476,502,78,129447,117654
10478,502,78,129465,117658
10481,502,77,129477,117666
10483,503,78,129495,117671
10486,504,77,129493,117673
10488,504,78,129514,117685
10491,504,78,129530,117692
10493,505,78,129559,117699
10497,505,78,129572,117707
10499,504,78,129592,117716
10501,502,77,129610,117721
10504,499,77,129631,117731
10506,495,77,129649,117732
10509,489,78,129680,117747
10511,481,78,129690,117758
10514,482,78,129718,117760
10516,487,77,129741,117773
10518,496,77,129764,117786
10521,522,77,129791,117785
10523,536,77,129812,117800
10526,556,77,129834,117807
10528,574,78,129849,117818
10531,602,77,129873,117833
10533,646,77,129906,117836
10536,670,78,129915,117847
10539,693,78,129952,117855
10541,715,78,129977,117873
10544,739,78,130007,117880
10546,755,78,130034,117890
10549,761,78,130058,117898
10551,738,78,130076,117905
10554,716,78,130102,117916
10556,682,78,130119,117927
10558,643,78,130151,117937
10561,569,78,130172,117943
10563,537,78,130197,117965
10566,510,78,130219,117965
10568,478,78,130243,117975
10571,452,78,130264,117984
10573,432,78,130293,117994
10576,427,78,130313,117992
10578,425,78,130327,118017
10580,426,77,130356,118019
10584,430,77,130371,118034
10586,436,77,130396,118042
10589,442,78,130415,118048
10591,450,77,130434,118055
10594,453,77,130457,118064
10596,459,77,130471,118072
10598,461,78,130495,118073
10601,463,77,130510,118087
10603,466,77,130528,118071
10606,469,77,130555,118095
10608,471,77,130569,118107
10611,472,77,130586,118115
10613,473,77,130602,118121
10616,475,77,130621,118129
10618,477,77,130640,118137
10620,478,77,130657,118136
10624,479,77,130670,118153
10626,480,77,130688,118160
10629,483,77,130697,118161
10631,484,77,130721,118167
10634,485,77,130736,118180
10636,486,77,130752,118176
10638,487,77,130768,118176
10641,490,77,130781,118200
10643,491,77,130801,118198
10646,492,77,130818,118200
10648,493,77,130816,118202
10651,494,77,130834,118216
10653,496,77,130852,118218
10656,497,77,130852,118223
10658,498,77,130872,118220
10660,499,77,130889,118220
10663,500,77,130904,118240
10665,501,77,130912,118244
10669,501,77,130912,118239
10671,502,77,130932,118247
10674,503,77,130945,118247
10676,504,77,130958,118258
10678,505,77,130964,118262
10681,507,77,130974,118270
10683,507,77,130974,118274
10686,508,77,130989,118274
10688,510,77,131005,118277
10691,511,77,131005,118278
10693,512,77,131017,118280
10696,513,77,131026,118280
10698,514,77,131040,118300
10700,515,77,131052,118299
10703,516,77,131054,118303
10705,517,77,131054,118306
10708,518,77,131075,118312
10711,519,77,131078,118305
10714,521,77,131078,118322
10716,522,77,131101,118324
10718,524,77,131107,118324
10721,527,77,131115,118323
10723,528,77,131115,118327
10726,529,77,131129,118330
10728,531,77,131135,118330
10731,532,77,131159,118326
10733,535,77,131156,118332
10736,536,77,131158,118345
10738,539,77,131174,118346
10740,540,77,131181,118346
10743,542,77,131185,118344
10745,543,77,131185,118351
10748,545,77,131194,118352
10750,546,77,131190,118352
10754,547,77,131188,118350
10756,549,77,131188,118342
10758,550,77,131189,118342
10761,551,77,131164,118342
10763,552,77,131150,118330
10766,552,77,131120,118304
10768,554,77,131120,118285
10771,554,77,131095,118265
10773,555,77,130986,118265
10776,555,77,130919,118235
10778,555,77,130919,118176
10780,554,77,130851,118135
10783,554,77,130663,118135
10785,553,77,130566,118097
10788,552,77,130440,118050
10790,549,77,130440,117935
10793,546,77,130163,117880
10796,544,77,130014,117880
10798,542,77,129864,117818
