TimeStamp,ECG Data,GSR Data,PPG_Red Data,PPG_IR Data
179949,529,91,129581,118290
179952,532,91,129594,118288
179954,534,91,129608,118294
179957,535,91,129618,118302
179947,527,91,129581,118275
179949,529,91,129581,118290
179952,532,91,129594,118288
179954,534,91,129608,118294
179957,535,91,129618,118302
3,0,0,0,0
6,477,82,0,0
8,481,82,57568,57562
11,484,82,73900,73943
13,486,82,90309,90298
15,488,83,106730,106719
18,490,83,123099,118195
20,496,83,129484,118180
23,497,83,129486,118183
25,497,83,129493,118176
28,495,84,129487,118176
30,489,84,129481,118188
33,491,84,129492,118186
35,492,84,129492,118188
37,494,84,129498,118183
40,497,85,129495,118185
43,502,85,129496,118192
46,502,85,129498,118191
48,502,85,129500,118183
51,501,85,129492,118185
53,502,85,129501,118188
55,504,86,129501,118190
58,507,86,129490,118182
60,510,86,129497,118187
63,512,86,129489,118186
65,510,86,129501,118188
68,510,86,129497,118195
70,512,86,129501,118195
73,512,86,129501,118193
75,514,87,129508,118194
77,515,87,129505,118195
80,513,87,129512,118196
82,514,87,129515,118189
86,516,87,129512,118197
88,518,87,129503,118201
91,521,87,129513,118206
93,522,87,129507,118200
95,522,87,129513,118206
98,521,88,129512,118201
100,519,88,129521,118192
103,521,88,129525,118202
105,525,88,129533,118202
108,527,88,129527,118205
110,529,88,129538,118205
113,530,88,129542,118213
115,533,88,129537,118208
117,534,88,129547,118212
120,536,88,129553,118217
122,538,88,129558,118210
125,540,88,129552,118221
128,542,88,129563,118212
131,543,89,129569,118223
133,545,88,129563,118228
135,544,88,129574,118231
138,545,89,129575,118228
140,546,89,129585,118229
143,554,89,129577,118233
145,555,89,129581,118240
148,556,89,129578,118226
150,556,89,129571,118224
153,555,89,129558,118223
155,553,89,129546,118213
157,554,89,129540,118211
160,555,89,129523,118199
162,557,89,129509,118190
165,557,89,129462,118181
167,551,89,129432,118161
171,549,89,129403,118142
173,548,89,129355,118131
175,548,89,129323,118112
178,546,90,129280,118103
180,543,90,129232,118075
183,536,90,129183,118049
185,531,90,129133,118030
188,526,90,129070,118008
190,521,90,129030,117984
193,518,90,128964,117965
195,512,90,128904,117944
197,507,90,128849,117911
200,503,90,128805,117896
202,499,90,128738,117870
205,493,90,128686,117851
207,489,90,128639,117835
210,486,90,128639,117814
212,482,90,128540,117786
215,480,90,128497,117786
218,478,90,128455,117762
220,474,90,128409,117729
223,470,90,128379,117720
225,465,90,128332,117704
228,462,90,128299,117697
230,460,90,128273,117680
233,461,90,128273,117661
235,460,90,128197,117655
237,459,90,128160,117655
240,456,90,128150,117631
242,456,90,128120,117608
245,456,90,128120,117613
247,455,90,128058,117593
250,454,90,128037,117593
252,456,90,128024,117576
254,456,90,127999,117568
258,457,90,127980,117554
260,457,90,127980,117559
263,459,90,127942,117549
265,462,90,127935,117539
268,462,90,127935,117531
270,462,90,127898,117532
273,463,90,127881,117532
275,466,90,127878,117521
277,467,90,127878,117515
280,466,90,127865,117514
282,465,90,127846,117514
285,466,90,127852,117504
287,470,90,127838,117503
290,472,90,127830,117508
292,474,90,127830,117501
294,475,90,127832,117496
297,476,90,127818,117491
300,477,90,127811,117491
303,480,90,127814,117491
305,481,90,127814,117496
308,482,90,127817,117490
310,482,90,127813,117490
313,481,91,127816,117487
315,481,90,127800,117487
317,483,91,127800,117493
320,485,91,127819,117495
322,486,91,127813,117495
325,488,91,127815,117492
327,490,90,127815,117496
330,492,90,127825,117497
332,493,91,127823,117497
334,493,91,127834,117498
337,494,91,127839,117497
339,494,91,127839,117500
343,494,91,127837,117500
345,494,91,127847,117500
348,494,91,127847,117500
350,491,91,127847,117499
353,492,91,127849,117507
355,493,91,127867,117507
357,495,91,127874,117513
360,496,91,127877,117511
362,495,91,127886,117511
365,495,90,127886,117514
367,497,91,127889,117516
370,499,91,127899,117516
372,500,91,127899,117528
374,499,91,127916,117528
377,498,91,127922,117528
379,498,91,127906,117532
382,498,91,127953,117538
385,498,91,127961,117538
388,499,91,127961,117548
390,499,91,127980,117555
393,500,91,127996,117555
395,500,91,127996,117564
397,501,91,128011,117566
400,501,91,128038,117566
402,501,91,128042,117575
405,502,91,128042,117583
407,504,91,128054,117582
410,505,91,128059,117582
412,506,91,128093,117595
414,503,91,128093,117599
417,502,91,128121,117599
419,499,91,128132,117609
422,499,91,128132,117619
424,501,91,128156,117628
428,501,91,128181,117628
430,501,91,128187,117629
433,502,91,128187,117635
435,502,91,128206,117648
437,501,91,128208,117648
440,501,91,128235,117641
442,502,91,128241,117653
445,503,91,128241,117656
447,503,91,128262,117662
450,504,91,128271,117662
452,504,91,128272,117664
454,504,91,128272,117657
457,506,91,128279,117657
459,507,91,128273,117657
462,508,91,128272,117658
464,509,91,128283,117663
467,509,91,128273,117649
470,510,91,128271,117651
473,510,91,128264,117660
475,511,91,128261,117659
477,511,91,128261,117643
480,509,91,128248,117647
482,509,91,128248,117647
485,510,91,128239,117639
487,511,91,128230,117634
490,512,91,128219,117634
492,513,91,128214,117627
494,514,91,128200,117618
497,515,91,128193,117615
499,517,91,128177,117618
502,516,91,128165,117617
504,517,91,128161,117607
507,517,91,128152,117603
509,514,91,128143,117590
513,513,91,128141,117591
515,512,91,128118,117589
517,512,91,128109,117579
520,512,91,128093,117577
522,513,91,128096,117571
525,513,91,128068,117572
527,511,91,128064,117561
530,508,91,128059,117554
532,507,91,128036,117551
534,506,91,128046,117556
537,504,91,128033,117551
539,503,91,128028,117540
542,503,91,128006,117542
544,503,91,128014,117546
547,503,91,128010,117540
549,502,91,128009,117537
552,501,91,127998,117541
555,501,91,127993,117527
557,500,91,127985,117532
560,503,91,127982,117533
562,503,91,127982,117534
565,502,91,127992,117529
567,500,91,127990,117539
570,499,91,127985,117527
572,498,91,127992,117535
574,499,91,127992,117531
577,501,91,127993,117532
579,502,91,127998,117530
582,503,91,128003,117531
584,504,91,128002,117544
587,504,91,128010,117540
589,504,91,128007,117546
592,503,91,128011,117549
594,503,91,128014,117546
596,505,91,128028,117546
600,506,91,128023,117550
602,506,91,128029,117548
605,507,91,128035,117548
607,506,91,128043,117557
610,505,91,128046,117561
612,504,91,128058,117566
614,502,91,128071,117568
617,498,91,128067,117571
619,494,91,128076,117582
622,490,91,128096,117581
624,485,91,128096,117585
627,485,91,128104,117579
629,494,91,128115,117597
632,505,91,128130,117592
634,521,91,128133,117592
636,538,91,128149,117604
640,561,91,128142,117602
642,596,91,128155,117609
645,616,91,128168,117612
647,643,91,128163,117611
650,674,91,128179,117619
652,690,91,128193,117627
654,710,91,128195,117625
657,736,92,128215,117632
659,746,92,128229,117639
662,748,92,128239,117643
664,740,92,128252,117640
667,717,92,128261,117643
669,663,92,128268,117653
672,624,92,128285,117656
674,589,92,128296,117664
676,543,92,128307,117669
679,488,92,128323,117670
681,466,92,128342,117680
685,454,92,128352,117686
687,430,91,128368,117691
690,422,92,128382,117695
692,417,91,128391,117700
694,416,91,128410,117704
697,419,92,128431,117714
699,426,91,128433,117716
702,437,92,128459,117725
704,444,91,128470,117730
707,448,91,128470,117737
709,453,91,128498,117739
712,456,91,128514,117739
714,461,91,128535,117757
716,463,91,128531,117760
719,465,91,128567,117765
721,467,91,128578,117763
724,469,91,128588,117773
727,472,91,128602,117779
730,474,91,128602,117786
732,478,91,128623,117788
734,480,91,128635,117788
737,484,91,128647,117805
739,485,91,128661,117801
742,487,91,128673,117809
744,487,91,128673,117807
747,487,91,128693,117816
749,489,91,128699,117821
752,489,91,128699,117827
754,489,91,128724,117832
756,490,91,128732,117832
759,493,92,128750,117844
761,494,91,128750,117848
764,494,91,128755,117848
766,495,91,128769,117848
770,497,91,128779,117852
772,498,91,128788,117852
774,499,91,128788,117862
777,500,91,128803,117866
779,501,91,128810,117866
782,502,91,128814,117876
784,503,91,128814,117878
787,503,91,128826,117879
789,503,91,128846,117879
792,503,91,128860,117880
794,506,91,128873,117893
796,507,91,128873,117892
799,509,91,128876,117898
801,510,91,128885,117898
804,510,91,128900,117907
806,512,91,128900,117914
809,514,91,128906,117906
812,515,91,128913,117906
814,516,91,128929,117914
817,516,91,128935,117916
819,516,91,128936,117916
822,517,91,128949,117924
824,519,91,128949,117923
827,521,91,128957,117933
829,523,91,128979,117933
832,526,91,128988,117936
834,529,91,128988,117942
836,529,91,128987,117951
839,528,91,129000,117951
841,529,91,129020,117949
844,530,91,129024,117959
846,534,91,129024,117963
849,535,91,129052,117968
851,536,92,129050,117968
854,538,91,129058,117969
857,542,91,129058,117975
859,544,91,129059,117979
862,544,91,129076,117979
864,545,91,129084,117972
867,547,91,129084,117978
869,547,91,129086,117978
872,548,91,129085,117988
874,548,91,129085,117986
876,549,91,129081,117975
879,550,92,129066,117975
881,551,91,129068,117979
884,553,92,129068,117965
886,554,91,129051,117957
889,555,92,129011,117957
891,556,92,128990,117948
893,556,91,128959,117945
897,556,91,128959,117907
899,555,91,128929,117892
902,554,92,128847,117892
904,552,91,128814,117872
907,549,92,128814,117832
909,545,91,128758,117815
912,543,91,128706,117815
914,539,92,128607,117791
916,536,92,128544,117771
919,530,91,128544,117717
921,526,91,128503,117706
924,523,92,128394,117706
926,520,92,128346,117688
929,516,92,128346,117639
931,508,92,128295,117618
933,504,92,128235,117618
936,499,92,128201,117606
939,494,92,128142,117583
942,489,92,128105,117572
944,482,92,128068,117551
947,478,91,127987,117541
949,475,91,127948,117527
952,473,91,127948,117488
954,469,91,127913,117470
956,468,92,127864,117470
959,466,92,127834,117460
961,464,91,127800,117441
964,463,91,127781,117431
966,461,91,127744,117420
969,461,92,127684,117400
971,461,91,127659,117395
973,460,92,127659,117376
976,460,91,127637,117376
978,460,91,127606,117360
982,460,91,127588,117351
984,462,91,127568,117344
987,462,91,127539,117332
989,462,91,127530,117337
992,461,91,127513,117321
994,462,91,127482,117308
996,463,91,127492,117308
999,465,91,127455,117306
1001,467,91,127457,117296
1004,469,91,127454,117296
1006,470,91,127445,117284
1009,470,91,127432,117285
1011,471,91,127421,117277
1013,472,91,127403,117278
1016,473,91,127408,117283
1018,475,91,127397,117280
1021,476,91,127391,117273
1024,475,91,127402,117270
1027,475,91,127395,117272
1029,475,91,127399,117268
1032,475,91,127402,117273
1034,478,91,127403,117272
1036,480,91,127390,117280
1039,482,91,127397,117278
1041,483,91,127395,117270
1044,484,91,127409,117275
1046,484,91,127417,117269
1049,485,91,127413,117281
1051,486,91,127414,117279
1053,486,91,127427,117283
1056,487,91,127419,117284
1058,487,91,127434,117291
1061,488,91,127440,117284
1063,489,91,127456,117290
1067,492,92,127462,117287
1069,494,91,127461,117296
1072,495,92,127462,117296
1074,495,91,127484,117296
1076,494,91,127478,117302
1079,495,91,127487,117308
1081,495,92,127491,117302
1084,495,91,127504,117304
1086,495,91,127517,117318
1089,495,91,127522,117319
1091,496,92,127534,117329
1093,497,91,127544,117331
1096,499,92,127557,117337
1098,500,92,127569,117339
1101,500,91,127585,117338
1103,499,92,127587,117356
1106,499,91,127595,117352
1108,498,92,127609,117361
1112,499,91,127620,117357
1114,500,92,127635,117364
1116,501,91,127653,117369
1119,501,91,127658,117381
1121,500,91,127666,117381
1124,499,91,127685,117382
1126,499,91,127698,117384
1129,498,92,127710,117396
1131,498,92,127728,117405
1133,500,91,127736,117406
1136,502,92,127747,117413
1138,503,91,127771,117411
1141,502,92,127786,117427
1143,502,92,127797,117425
1146,502,92,127805,117432
1148,501,92,127822,117433
1152,501,92,127837,117435
1154,501,92,127851,117449
1156,503,92,127855,117448
1159,504,92,127864,117455
1161,503,91,127880,117456
1164,503,92,127880,117454
1166,503,92,127896,117460
1169,503,91,127898,117460
1171,504,92,127911,117470
1173,504,92,127918,117459
1176,505,92,127920,117464
1178,506,92,127919,117466
1181,506,92,127925,117465
1183,506,92,127922,117461
1186,506,92,127918,117461
1188,505,92,127916,117453
1191,505,92,127916,117458
1193,505,92,127919,117461
1196,505,92,127918,117452
1199,505,92,127925,117455
1201,504,92,127908,117450
1204,504,92,127903,117451
1206,505,92,127897,117450
1209,505,92,127897,117442
1211,505,92,127887,117446
1213,505,92,127880,117446
1216,506,92,127893,117444
1218,506,92,127883,117434
1221,507,92,127876,117431
1223,506,92,127876,117430
1226,506,92,127856,117437
1228,507,92,127847,117434
1231,508,92,127847,117429
1233,508,92,127835,117416
1235,508,92,127829,117416
1239,506,92,127829,117422
1241,507,92,127829,117412
1244,508,92,127818,117410
1246,509,92,127799,117410
1249,509,92,127803,117403
1251,509,92,127805,117399
1253,509,92,127805,117406
1256,509,92,127789,117405
1258,509,92,127784,117405
1261,509,92,127781,117396
1263,509,92,127781,117401
1266,508,92,127789,117390
1268,509,92,127766,117390
1271,511,92,127780,117394
1273,513,92,127770,117388
1275,513,92,127770,117392
1278,511,92,127765,117394
1281,510,92,127770,117394
1284,509,92,127768,117389
1286,508,92,127768,117391
1289,509,92,127772,117399
1291,510,92,127774,117399
1293,510,92,127776,117400
1296,509,92,127782,117393
1298,508,92,127775,117393
1301,508,92,127775,117393
1303,508,92,127775,117402
1306,508,92,127788,117402
1308,510,92,127788,117398
1311,511,92,127794,117403
1313,512,92,127796,117403
1315,511,92,127818,117409
1318,510,92,127821,117418
1320,510,92,127815,117418
1324,510,92,127815,117419
1326,511,92,127840,117422
1329,511,92,127844,117422
1331,512,92,127844,117424
1333,511,92,127859,117431
1336,512,92,127868,117431
1338,512,92,127885,117431
1341,512,92,127885,117444
1343,513,92,127901,117444
1346,512,92,127901,117447
1348,511,92,127906,117455
1351,511,92,127920,117455
1353,511,92,127920,117460
1355,512,92,127939,117463
1358,512,92,127948,117471
1360,512,92,127948,117467
1363,512,92,127961,117475
1366,512,92,127971,117480
1369,512,92,127983,117480
1371,512,92,128009,117484
1373,514,92,128009,117498
1376,514,92,128022,117498
1555,518,92,128908,117872
1558,517,92,128921,117872
1560,515,92,128941,117873
1553,518,92,128898,117866
1555,518,92,128908,117872
1558,517,92,128921,117872
1560,515,92,128941,117873
1563,514,92,128938,117881
1553,518,92,128898,117866
1555,518,92,128908,117872
1558,517,92,128921,117872
1560,515,92,128941,117873
1563,514,92,128938,117881
1565,513,92,128953,117892
1568,513,92,128955,117901
1570,511,92,128972,117901
1572,510,92,128979,117901
1575,510,92,128981,117904
1577,509,92,128995,117908
1581,506,92,128999,117911
1583,506,92,129008,117912
1586,506,92,129013,117917
1588,506,92,129029,117921
1591,507,92,129034,117920
1593,507,92,129037,117935
1595,507,92,129053,117936
1598,507,92,129053,117934
1600,507,92,129057,117939
1603,507,92,129056,117946
1605,507,92,129066,117943
1608,508,92,129074,117944
1610,508,92,129083,117947
1612,509,92,129091,117952
1615,509,92,129100,117960
1617,509,92,129094,117956
1620,509,92,129103,117953
1623,509,92,129122,117961
1626,509,92,129125,117963
1628,508,92,129123,117975
1631,508,92,129137,117978
1633,509,92,129146,117977
1635,510,92,129149,117976
1638,509,92,129157,117980
1640,507,92,129172,117985
1643,505,92,129174,117988
1645,502,92,129187,117991
1648,499,92,129187,117997
1650,494,92,129190,118001
1652,491,92,129194,118001
1655,487,92,129216,118004
1657,491,92,129218,118002
1660,497,92,129225,118007
1662,511,92,129223,118006
1666,523,92,129235,118011
1668,554,92,129246,118016
1671,570,92,129246,118021
1673,595,92,129272,118019
1675,614,92,129270,118019
1678,659,92,129282,118032
1680,681,92,129281,118039
1683,699,92,129281,118041
1685,724,92,129291,118048
1688,741,92,129303,118048
1690,763,92,129313,118050
1692,762,92,129313,118048
1695,746,92,129318,118048
1697,724,92,129325,118048
1700,689,92,129344,118067
1702,609,92,129343,118065
1705,573,92,129343,118065
1708,527,92,129372,118077
1711,498,92,129372,118077
1713,448,92,129380,118079
1715,434,92,129380,118079
1718,423,92,129397,118084
1720,420,92,129404,118084
1723,419,92,129426,118087
1725,424,92,129424,118098
1728,427,92,129429,118105
1730,436,92,129429,118112
1732,441,92,129444,118116
1735,447,92,129453,118117
1737,450,92,129471,118117
1740,459,92,129479,118121
1742,462,92,129479,118126
1745,465,92,129494,118133
1747,467,92,129511,118133
1751,468,92,129524,118138
1753,472,92,129524,118139
1755,475,92,129533,118146
1758,477,92,129544,118152
1760,479,92,129544,118156
1763,479,92,129560,118158
1765,479,92,129579,118158
1768,480,92,129589,118159
1770,483,92,129589,118164
1772,485,92,129594,118171
1775,487,92,129608,118169
1777,487,92,129619,118169
1780,488,92,129619,118185
1782,489,92,129637,118185
1785,491,92,129651,118190
1787,494,92,129651,118199
1790,493,91,129657,118198
1793,493,92,129671,118198
1795,493,92,129677,118204
1798,494,92,129677,118207
1800,496,92,129678,118212
1803,498,92,129700,118212
1805,501,92,129711,118212
1808,501,92,129711,118223
1810,502,92,129727,118223
1812,502,92,129732,118232
1815,502,91,129732,118238
1817,502,91,129743,118233
1820,504,92,129762,118233
1822,504,91,129769,118246
1825,506,92,129769,118253
1827,508,91,129775,118252
1830,509,92,129793,118252
1832,510,92,129793,118261
1835,511,92,129803,118261
1838,512,92,129814,118268
1840,514,92,129814,118271
1843,515,92,129832,118271
1845,516,92,129842,118275
1848,518,92,129842,118282
1850,519,91,129856,118288
1852,520,92,129863,118288
1855,520,92,129893,118297
1857,520,91,129896,118301
1860,521,92,129896,118303
1862,522,92,129909,118315
1865,524,92,129925,118315
1867,526,92,129935,118322
1870,528,92,129935,118320
1872,530,92,129954,118326
1874,531,92,129961,118326
1878,533,92,129961,118336
1880,535,91,129980,118341
1883,536,92,129987,118334
1885,537,92,130000,118344
1888,538,92,129998,118347
1890,539,92,130008,118352
1892,541,92,130008,118346
1895,543,92,130005,118340
1897,544,92,130003,118340
1900,546,91,129992,118337
1902,547,92,129980,118328
1905,549,92,129955,118318
1907,553,92,129929,118299
1910,555,92,129856,118281
1912,556,92,129807,118268
1914,558,92,129807,118220
1917,558,92,129753,118220
1920,560,92,129689,118191
1923,561,92,129609,118170
1925,561,92,129530,118122
1928,561,92,129447,118085
1930,560,91,129365,118054
1932,559,92,129276,118018
1935,559,92,129183,117976
1937,558,92,129089,117939
1940,557,92,129009,117906
1942,554,92,128918,117870
1945,552,92,128826,117842
1947,551,92,128766,117805
1950,548,92,128695,117784
1952,543,92,128631,117756
1954,540,92,128574,117742
1957,537,92,128514,117710
1959,535,92,128453,117686
1963,531,92,128404,117664
1965,520,92,128360,117659
1968,513,92,128310,117638
1970,508,92,128271,117612
1972,503,92,128238,117599
1975,495,92,128206,117591
1977,491,92,128173,117575
1980,488,92,128129,117567
1982,484,92,128112,117553
1985,481,92,128083,117541
1987,474,92,128063,117534
1990,470,92,128047,117539
1992,467,92,128026,117526
1994,464,92,128012,117515
1997,461,92,127996,117509
1999,459,92,127975,117504
2002,459,92,127963,117501
2004,458,91,127959,117493
2008,457,92,127939,117485
2010,456,92,127943,117484
2012,455,92,127920,117485
2015,454,92,127923,117477
2017,454,92,127909,117478
2020,455,92,127908,117474
2022,454,92,127898,117466
2025,454,92,127894,117477
2027,454,92,127895,117465
2030,454,92,127896,117464
2032,457,91,127887,117467
2034,458,92,127883,117467
2037,459,92,127887,117467
2039,459,92,127893,117448
2042,459,92,127885,117465
2044,460,92,127891,117461
2048,462,92,127883,117461
2050,464,92,127880,117462
2052,465,92,127888,117456
2055,466,92,127891,117466
2057,467,92,127900,117466
2060,469,91,127890,117463
2062,469,92,127906,117477
2065,470,92,127909,117470
2067,472,92,127917,117472
2070,474,91,127918,117474
2072,476,92,127924,117476
2074,476,91,127933,117478
2077,476,92,127926,117475
2079,476,92,127928,117474
2082,477,91,127932,117481
2084,479,92,127934,117479
2087,480,92,127935,117475
2089,481,92,127941,117479
2092,483,92,127954,117476
2095,484,92,127953,117483
2097,485,92,127947,117481
2100,487,91,127946,117484
2102,487,92,127962,117473
2105,487,92,127954,117479
2107,486,92,127948,117478
2110,486,92,127957,117475
2112,487,92,127961,117477
2114,488,92,127956,117476
2117,489,91,127966,117477
2119,490,92,127964,117473
2122,491,92,127955,117481
2124,492,92,127956,117468
2127,492,92,127956,117475
2129,492,92,127956,117472
2131,492,92,127952,117472
2135,492,92,127964,117476
2137,493,92,127962,117471
2140,494,92,127956,117471
2142,494,92,127957,117468
2145,494,92,127956,117471
2147,496,92,127967,117471
2150,497,92,127967,117472
2152,497,92,127966,117471
2154,497,92,127972,117471
2157,496,92,127981,117481
2159,497,92,127981,117479
2162,496,92,127981,117479
2164,496,92,127993,117481
2167,496,92,127989,117481
2169,497,92,127996,117483
2171,497,92,127996,117487
2174,497,92,127998,117493
2177,497,92,128006,117493
2180,497,92,128011,117495
2182,498,92,128016,117489
2185,499,92,128016,117488
2187,500,92,128018,117490
2190,501,92,128021,117490
2192,502,92,128024,117488
2194,502,92,128024,117490
2197,502,92,128025,117493
2199,501,92,128022,117493
2202,500,92,128036,117490
2204,498,92,128032,117488
2207,498,92,128020,117491
2209,498,92,128020,117482
2211,499,92,128036,117485
2214,500,92,128022,117486
2216,500,92,128013,117486
2220,502,92,128019,117482
2222,502,92,128019,117487
2225,503,92,128019,117483
2227,502,92,128006,117483
2230,502,92,128008,117488
2232,501,92,128008,117470
2234,501,92,128005,117468
2237,501,92,127986,117467
2239,502,92,127986,117469
2242,502,92,127981,117469
2244,503,92,127982,117469
2247,503,92,127982,117459
2249,502,92,127982,117459
2251,502,92,127978,117462
2254,502,92,127974,117462
2256,503,92,127965,117459
2259,504,92,127965,117455
2262,504,92,127961,117455
2265,505,92,127966,117457
2267,505,92,127966,117449
2270,505,92,127963,117452
2272,505,92,127952,117452
2274,504,92,127959,117448
2277,506,92,127959,117447
2279,507,92,127960,117449
2282,508,92,127948,117449
2284,509,92,127955,117445
2287,509,92,127955,117449
2289,509,92,127954,117449
2291,509,92,127962,117449
2294,508,92,127962,117450
2296,508,92,127967,117445
2299,509,92,127961,117445
2301,509,92,127961,117449
2305,509,92,127961,117447
2307,507,92,127960,117449
2310,507,92,127969,117449
2312,507,92,127969,117447
2314,506,92,127977,117445
2317,506,92,127979,117445
2319,508,92,127979,117457
2322,509,92,127983,117460
2324,509,92,127982,117458
2327,509,92,127990,117458
2329,509,92,128003,117460
2331,508,92,128003,117466
2334,508,92,128002,117466
2336,508,92,128002,117468
2339,508,92,128008,117474
2341,508,92,128031,117473
2344,508,92,128025,117473
2347,508,92,128040,117480
2350,509,92,128040,117485
2352,509,92,128059,117485
2354,509,92,128059,117491
2357,510,92,128057,117499
2359,510,92,128065,117499
2362,509,92,128080,117501
2364,509,92,128085,117498
2367,510,92,128095,117498
2369,511,92,128099,117508
2371,511,92,128107,117505
2374,511,92,128119,117508
2376,511,92,128124,117516
2379,511,92,128149,117517
2381,512,92,128149,117526
2384,511,92,128153,117526
2386,510,92,128169,117522
2390,510,92,128177,117536
2392,509,92,128185,117538
2394,509,92,128204,117540
2397,509,92,128211,117549
2399,511,92,128219,117550
2402,511,92,128232,117555
2404,512,92,128244,117558
2407,511,92,128250,117567
2409,511,92,128263,117570
2411,511,92,128274,117576
2414,510,92,128294,117576
2416,510,92,128298,117586
2419,510,92,128309,117592
2421,510,92,128328,117595
2424,510,92,128335,117599
2426,511,92,128347,117601
2429,511,92,128357,117607
2432,511,92,128372,117608
2434,510,92,128374,117614
2437,510,92,128381,117618
2439,511,92,128396,117628
2442,511,92,128411,117625
2444,511,92,128423,117630
2447,512,92,128430,117634
2449,511,92,128448,117642
2451,510,92,128457,117644
2454,510,92,128474,117655
2456,511,92,128474,117660
2459,512,92,128492,117656
2461,512,92,128504,117667
2464,513,92,128513,117670
2466,513,92,128514,117670
2469,513,92,128520,117684
2471,512,92,128549,117683
2473,513,92,128559,117687
2477,513,92,128569,117692
2479,514,92,128588,117694
2482,515,92,128591,117695
2484,514,92,128604,117707
2487,513,92,128611,117706
2489,513,92,128626,117711
2491,513,92,128636,117723
2494,514,92,128646,117723
2496,513,92,128654,117734
2499,512,92,128683,117733
2501,512,92,128694,117738
2504,513,92,128700,117743
2506,513,92,128701,117746
2509,513,92,128716,117749
2511,512,92,128721,117765
2513,512,92,128736,117762
2516,512,92,128738,117763
2519,512,92,128749,117767
2522,512,92,128763,117767
2524,512,92,128774,117771
2527,511,92,128774,117775
2529,511,92,128793,117782
2531,511,92,128800,117786
2534,513,92,128798,117788
2536,513,92,128808,117795
2539,512,92,128816,117793
2541,512,92,128823,117796
2544,513,92,128830,117800
2546,514,92,128844,117797
2549,514,92,128862,117812
2551,514,92,128856,117813
2553,514,92,128868,117817
2556,515,92,128870,117824
2558,516,92,128876,117823
2562,516,92,128889,117825
2564,517,92,128898,117835
2567,517,92,128896,117829
2569,519,92,128907,117834
2571,519,92,128921,117835
2574,517,92,128927,117830
2576,517,92,128935,117844
2579,518,92,128934,117846
2581,519,92,128949,117841
2584,518,92,128950,117851
2586,517,91,128951,117850
2589,517,92,128961,117844
2591,518,92,128966,117857
2593,519,92,128973,117853
2596,518,92,128982,117855
2598,518,92,128985,117859
2601,517,92,128988,117867
2604,516,92,128995,117864
2607,515,92,128995,117873
2609,513,91,128998,117873
2611,513,92,129017,117873
2614,511,92,129023,117878
2616,511,92,129019,117873
2619,512,92,129030,117881
2621,512,92,129028,117882
2624,511,92,129032,117886
2626,509,92,129038,117880
2629,508,92,129038,117892
2631,508,92,129051,117886
2633,508,92,129050,117886
2636,507,92,129079,117903
2638,506,92,129072,117901
2641,506,92,129072,117903
2643,506,92,129086,117900
2647,506,92,129089,117900
2649,507,92,129095,117893
2651,506,92,129095,117908
2654,506,92,129108,117913
2656,506,92,129114,117913
2659,506,92,129123,117923
2661,506,92,129124,117920
2664,506,92,129124,117921
2666,506,92,129137,117921
2669,506,92,129148,117928
2671,506,92,129150,117932
2673,506,92,129150,117931
2676,506,92,129157,117939
2678,506,91,129165,117939
2681,506,92,129174,117943
2683,506,92,129178,117943
2686,507,92,129184,117941
2689,508,92,129184,117950
2691,508,92,129196,117958
2694,506,92,129206,117960
2696,504,92,129211,117960
2699,497,92,129214,117954
2701,493,92,129214,117973
2704,488,92,129229,117971
2706,485,92,129232,117971
2709,484,91,129240,117970
2711,493,92,129240,117977
2713,506,91,129248,117986
2716,525,91,129265,117980
2718,542,91,129265,117994
2721,564,92,129273,117984
2723,582,92,129281,117984
2726,601,92,129292,117988
2728,642,92,129292,118002
2731,672,92,129302,118002
2734,692,92,129314,118002
2736,712,92,129318,118003
2739,750,92,129318,118008
2741,761,92,129332,118008
2744,769,92,129349,118018
2746,755,92,129349,118026
2749,725,92,129355,118025
2751,693,92,129373,118025
2753,650,92,129381,118036
2756,573,92,129381,118028
2758,527,92,129379,118036
2761,497,92,129399,118036
2763,467,92,129409,118041
2766,435,92,129409,118039
2768,427,92,129412,118039
2770,422,92,129433,118056
2774,422,92,129433,118060
2776,427,92,129448,118056
2779,431,92,129458,118056
2781,436,92,129469,118069
2784,445,92,129469,118067
2786,450,92,129477,118076
2789,453,92,129483,118076
2791,457,92,129483,118082
2793,460,92,129502,118088
2796,462,92,129510,118088
2798,466,92,129510,118090
2801,467,92,129522,118094
2803,469,92,129521,118104
2806,471,91,129537,118104
2808,472,92,129552,118106
2810,475,92,129552,118111
2813,476,92,129559,118111
2816,477,91,129559,118114
2819,480,91,129569,118119
2821,482,91,129579,118124
2824,483,92,129577,118124
2826,484,92,129585,118124
2829,485,91,129592,118123
2831,486,91,129606,118131
2833,489,91,129614,118130
2836,490,91,129626,118137
2838,491,91,129626,118145
2841,493,91,129636,118149
2843,494,91,129637,118149
2846,495,92,129653,118153
2848,495,91,129651,118159
2850,496,91,129668,118153
2853,496,92,129681,118162
2855,498,91,129688,118170
2859,498,91,129700,118165
2861,499,92,129700,118175
2864,500,92,129714,118175
2866,504,92,129724,118184
2869,504,94,129733,118185
2871,507,97,129738,118191
2873,511,99,129743,118194
2876,510,100,129756,118187
2878,503,99,129762,118200
2881,501,99,129765,118200
2883,502,99,129774,118207
2886,503,99,129790,118204
2888,507,98,129788,118213
2890,509,98,129794,118215
2893,511,98,129798,118216
2895,512,98,129819,118220
2898,513,97,129829,118221
2900,515,97,129831,118221
2904,516,97,129836,118224
2906,517,97,129840,118226
2909,518,97,129844,118232
2911,521,97,129851,118233
2913,523,96,129854,118233
2916,524,96,129856,118238
2918,526,96,129867,118246
2921,528,96,129873,118248
2923,529,96,129889,118246
2926,530,96,129891,118253
2928,530,96,129899,118252
2930,531,95,129900,118258
2933,532,95,129899,118249
2935,533,95,129906,118255
2938,534,95,129905,118252
2940,536,95,129896,118249
2944,538,95,129883,118254
2946,542,95,129863,118238
2949,544,95,129854,118234
2951,547,95,129831,118218
2953,549,94,129815,118200
2956,551,95,129775,118189
2958,553,94,129741,118173
2961,555,94,129682,118134
2963,555,94,129625,118119
2966,556,94,129559,118096
2968,560,97,129500,118066
2970,567,101,129440,118038
2973,566,103,129361,118017
2975,560,103,129309,117980
2978,559,104,129235,117960
2980,559,105,129175,117925
2983,560,106,129107,117896
2985,557,107,129044,117875
2989,557,107,128985,117848
2991,555,107,128928,117830
2993,554,108,128865,117810
2996,550,107,128805,117782
2998,547,107,128769,117762
3001,547,109,128717,117749
3003,542,109,128673,117719
3006,538,110,128634,117713
3008,536,111,128597,117691
3010,533,112,128552,117680
3013,525,114,128523,117667
3015,523,117,128487,117660
3018,519,118,128459,117649
3020,512,118,128429,117630
3023,502,117,128405,117623
3025,491,117,128387,117619
3028,487,116,128368,117613
3031,483,115,128355,117602
3033,478,115,128329,117597
3036,474,114,128319,117592
3038,471,113,128309,117586
3041,468,113,128295,117583
3043,465,112,128280,117574
3046,464,112,128271,117565
3048,461,111,128265,117567
3050,459,111,128270,117561
3053,458,110,128260,117569
3055,458,112,128246,117566
3058,466,117,128239,117560
3060,467,121,128241,117560
3063,467,123,128239,117557
3065,465,127,128242,117554
3068,464,130,128229,117555
3070,461,137,128248,117554
3073,460,140,128242,117558
3076,459,143,128246,117561
3078,459,148,128241,117558
3081,459,150,128241,117558
3083,458,154,128248,117562
3086,459,157,128254,117562
3088,461,162,128261,117568
3090,462,164,128259,117561
3093,463,169,128260,117563
3095,464,171,128260,117564
3098,465,174,128276,117562
3100,467,178,128269,117567
3103,468,180,128269,117571
3105,469,183,128289,117571
3108,470,185,128294,117571
3110,472,187,128303,117582
3112,473,191,128305,117583
3116,474,195,128313,117580
3118,475,196,128313,117581
3121,476,199,128327,117585
3123,477,202,128321,117592
3126,479,204,128321,117590
3128,481,206,128343,117590
3130,482,208,128338,117590
3133,483,210,128355,117600
3135,483,213,128355,117600
3138,483,215,128363,117602
3140,484,216,128364,117602
3143,486,218,128375,117606
3145,488,221,128385,117599
3148,489,222,128376,117609
3150,489,225,128381,117603
3152,491,226,128380,117603
3155,492,227,128386,117609
3158,492,230,128386,117607
3161,492,232,128385,117608
3163,493,233,128394,117608
3166,493,234,128408,117609
3168,494,237,128398,117607
3170,495,238,128398,117608
3173,495,239,128408,117608
3175,495,239,128413,117614
3178,494,239,128411,117607
3180,492,238,128411,117607
3183,491,237,128409,117612
3185,492,237,128414,117612
3188,493,236,128423,117611
3190,495,236,128423,117608
3192,496,235,128429,117617
3195,497,236,128433,117617
3197,499,236,128443,117612
3201,498,236,128439,117621
3203,501,238,128439,117622
3206,502,238,128447,117626
3208,500,237,128456,117626
3210,498,238,128459,117625
3213,500,239,128461,117620
3215,501,240,128459,117620
3218,505,242,128459,117629
3220,505,243,128464,117632
3223,505,244,128474,117632
3225,502,246,128474,117635
3228,501,247,128484,117635
3230,502,248,128483,117635
3232,502,248,128490,117639
3235,502,250,128489,117635
3237,502,251,128503,117635
3240,501,252,128503,117639
3243,501,254,128507,117640
3246,501,254,128510,117640
3248,497,252,128510,117645
3250,489,248,128517,117642
3253,485,244,128523,117642
3255,485,241,128523,117641
3258,488,239,128524,117639
3260,491,235,128526,117639
3263,494,228,128521,117639
3265,496,225,128527,117654
3268,498,219,128527,117638
3270,499,217,128527,117638
3272,500,214,128526,117652
3275,501,209,128526,117642
3277,501,206,128530,117642
3280,501,204,128529,117642
3282,501,201,128526,117645
3286,502,199,128526,117653
3288,502,196,128535,117644
3290,502,192,128534,117644
3293,501,189,128530,117643
3295,501,187,128535,117645
3298,499,183,128535,117645
3300,499,181,128544,117645
3303,500,179,128523,117636
3305,500,177,128527,117640
3308,500,175,128527,117639
3310,500,173,128528,117640
3312,501,170,128532,117640
3315,502,168,128536,117645
3317,502,166,128532,117636
3320,502,164,128529,117634
3322,502,161,128534,117646
3325,502,159,128538,117642
3328,502,158,128538,117644
3330,502,157,128538,117634
3333,502,155,128540,117634
3335,502,153,128533,117641
3338,502,151,128537,117631
3340,503,149,128538,117633
3343,503,147,128545,117632
3345,503,146,128532,117636
3348,502,145,128537,117630
3350,502,143,128537,117633
3352,501,142,128532,117635
3355,502,141,128536,117635
3357,502,138,128544,117636
3360,502,137,128546,117642
3362,501,136,128547,117630
3365,501,135,128545,117637
3367,502,133,128547,117634
3369,503,132,128552,117639
3373,503,131,128546,117635
3375,503,130,128557,117642
3378,503,129,128568,117642
3380,503,128,128566,117644
3383,503,127,128571,117646
3385,503,126,128575,117645
3388,502,125,128579,117650
3390,503,124,128585,117646
3392,503,124,128594,117652
3395,504,122,128590,117657
3397,504,121,128609,117655
3400,504,120,128613,117664
3402,505,120,128629,117662
3405,505,119,128630,117666
3407,505,118,128634,117667
3409,505,117,128639,117669
3412,505,116,128653,117670
3415,505,116,128659,117672
3418,506,115,128673,117681
3420,506,114,128676,117677
3423,506,114,128677,117691
3425,506,113,128688,117686
3428,505,112,128697,117696
3430,505,112,128699,117698
3432,505,111,128700,117702
3435,505,111,128716,117692
3437,505,110,128732,117706
3440,506,109,128734,117703
3442,506,109,128729,117704
3445,505,109,128750,117713
3447,506,108,128758,117719
3449,506,108,128763,117722
3452,507,107,128775,117718
3454,506,107,128782,117726
3458,507,106,128789,117724
3460,507,105,128785,117735
3463,508,105,128807,117736
3465,508,105,128821,117734
3468,509,104,128827,117745
3470,509,104,128833,117746
3472,509,103,128854,117752
3475,508,103,128855,117747
3477,508,103,128868,117756
3480,508,103,128873,117758
3482,508,102,128880,117757
3485,508,102,128890,117756
3487,509,101,128900,117767
3489,509,101,128908,117769
3492,509,101,128914,117774
3494,509,100,128931,117776
3497,509,100,128932,117779
3500,509,100,128937,117780
3503,509,99,128950,117789
3505,509,99,128961,117792
3508,509,99,128976,117796
3510,509,99,128978,117792
3512,509,99,128981,117799
3515,510,98,128991,117798
3517,510,98,129004,117804
3520,510,98,129012,117807
3522,510,97,129012,117813
3525,510,97,129025,117811
3527,511,97,129032,117816
3529,511,97,129046,117822
3532,511,97,129059,117826
3534,511,96,129062,117816
3537,510,96,129069,117832
3539,510,96,129075,117822
3543,510,96,129090,117839
3545,510,96,129093,117831
3548,511,96,129095,117832
3550,511,95,129116,117840
3552,511,95,129116,117841
3555,512,95,129131,117851
3557,512,95,129134,117853
3560,511,95,129134,117853
3562,511,95,129146,117860
3565,512,95,129159,117860
3567,512,94,129175,117865
3569,512,94,129179,117864
3572,513,94,129186,117871
3574,514,94,129186,117868
3577,514,94,129204,117877
3579,515,94,129207,117876
3582,515,94,129207,117878
3585,516,93,129220,117880
3588,516,93,129224,117880
3590,516,93,129238,117892
3592,516,93,129244,117886
3595,517,93,129253,117894
3597,517,93,129253,117891
3600,518,93,129257,117893
3602,519,93,129261,117898
3605,519,93,129261,117898
3607,519,93,129273,117899
3609,519,92,129276,117899
3612,518,93,129293,117905
3614,518,92,129293,117900
3617,518,92,129289,117908
3619,518,92,129283,117908
3622,518,92,129302,117902
3624,517,92,129296,117907
3628,516,92,129306,117915
3630,515,92,129303,117911
3632,514,92,129314,117911
3635,512,92,129314,117910
3637,512,92,129314,117914
3640,512,92,129318,117912
3642,511,92,129320,117912
3645,510,92,129333,117918
3647,509,91,129333,117919
3649,509,91,129337,117924
3652,509,91,129345,117924
3654,509,91,129355,117924
3657,508,91,129356,117934
3659,506,91,129356,117931
3662,506,91,129365,117938
3664,506,91,129377,117938
3667,506,91,129381,117944
3670,505,91,129381,117942
3672,504,91,129386,117943
3675,504,91,129397,117943
3677,504,91,129404,117948
3680,504,91,129411,117949
3682,505,91,129411,117958
3685,505,90,129421,117949
3687,505,90,129431,117949
3689,505,91,129450,117961
3692,505,91,129447,117962
3694,505,91,129449,117962
3697,505,90,129449,117972
3699,505,90,129455,117977
3702,506,90,129467,117977
3704,506,90,129467,117962
3707,505,90,129475,117969
3709,505,90,129484,117969
3712,505,90,129500,117977
3715,504,90,129500,117981
3717,502,90,129499,117982
3720,499,90,129515,117982
3722,496,90,129521,117985
3725,487,90,129521,117984
3727,484,90,129518,117984
3729,481,90,129526,117995
3732,488,90,129526,117995
3734,501,90,129530,118000
3737,513,90,129539,118000
3739,529,90,129545,117997
3742,559,90,129545,117995
3744,583,90,129553,118003
3747,602,90,129550,118003
3749,627,90,129566,118007
3751,648,90,129583,118016
3755,693,90,129583,118006
3757,723,90,129581,118009
3760,744,90,129587,118009
3762,762,90,129583,118017
3765,777,90,129583,118017
3767,770,90,129588,118012
3769,752,90,129588,118012
3772,720,90,129593,118018
3774,687,90,129599,118018
3777,643,90,129599,118014
3779,559,90,129609,118024
3782,517,90,129603,118023
3784,485,90,129605,118026
3787,457,90,129605,118034
3789,428,90,129617,118025
3791,424,90,129625,118025
3794,423,90,129617,118023
3796,425,90,129627,118034
3800,428,90,129627,118030
3802,437,90,129636,118030
3805,441,90,129646,118033
3807,445,90,129654,118043
3809,448,90,129654,118048
3812,451,89,129660,118048
3814,455,89,129653,118040
3817,457,89,129675,118044
3819,462,89,129677,118037
3822,463,89,129677,118045
3824,465,89,129677,118048
3827,467,89,129680,118043
3829,469,89,129696,118047
3831,471,89,129694,118048
3834,473,89,129700,118051
3836,475,89,129706,118061
3840,475,89,129717,118062
3842,477,89,129720,118058
3845,478,89,129725,118068
3847,482,89,129737,118067
3849,483,89,129742,118058
3852,485,89,129733,118064
3854,485,89,129750,118071
3857,486,89,129762,118076
3859,487,89,129762,118072
3862,487,89,129768,118078
3864,490,89,129764,118073
3867,491,89,129777,118077
3869,493,89,129776,118080
3871,493,89,129795,118083
3874,493,89,129805,118089
3876,494,89,129816,118098
3879,495,89,129826,118103
3881,497,89,129827,118101
3885,498,89,129829,118097
3887,498,89,129834,118106
3889,498,89,129827,118102
3892,500,89,129847,118101
3894,501,89,129848,118104
3897,503,89,129854,118103
3899,505,89,129859,118108
3902,506,89,129852,118109
3904,506,89,129853,118110
3907,507,89,129866,118110
3909,509,89,129860,118112
3911,510,89,129870,118118
3914,511,89,129881,118114
3916,513,89,129891,118118
3919,515,89,129882,118121
3921,516,89,129891,118129
3924,517,89,129896,118124
3927,517,89,129904,118127
3929,518,89,129912,118123
3932,519,89,129919,118128
3934,520,88,129931,118135
3937,523,89,129931,118144
3939,523,89,129943,118147
3942,525,89,129954,118149
3944,527,88,129965,118148
3947,528,89,129965,118156
3949,531,89,129975,118160
3951,533,89,129991,118159
3954,536,89,129989,118154
3956,539,88,129996,118163
3959,541,89,129985,118161
3961,542,89,129989,118165
3964,543,89,129994,118157
3966,545,89,129976,118155
3969,547,88,129965,118143
3972,548,89,129950,118134
3974,550,89,129929,118125
3977,552,89,129891,118110
3979,554,89,129864,118092
3982,555,89,129816,118068
3984,556,89,129777,118054
3987,558,89,129726,118027
3989,560,89,129673,118009
3991,561,89,129613,117978
3994,562,89,129555,117960
3996,563,89,129500,117929
3999,562,89,129436,117909
4001,561,89,129381,117879
4004,561,89,129323,117858
4006,561,89,129267,117833
4008,561,89,129210,117805
4012,559,89,129143,117777
4014,557,88,129091,117753
4017,556,89,129041,117741
4019,553,88,128995,117715
4022,550,89,128947,117702
4024,546,89,128906,117685
4027,543,89,128906,117664
4029,540,89,128830,117642
4031,537,89,128789,117642
4034,528,89,128754,117622
4036,524,88,128724,117603
4039,519,88,128724,117600
4041,513,89,128667,117584
4044,509,88,128634,117584
4046,498,88,128622,117564
4048,495,88,128589,117551
4051,489,88,128567,117553
4054,485,88,128567,117532
4057,481,88,128535,117533
4059,477,88,128525,117530
4062,474,88,128525,117517
4064,471,88,128494,117520
4067,469,88,128487,117520
4069,464,88,128479,117506
4071,464,88,128468,117498
4074,462,88,128466,117500
4076,460,88,128466,117499
4079,457,88,128455,117501
4081,454,88,128453,117504
4084,453,88,128453,117500
4086,453,88,128455,117499
4088,453,88,128452,117499
4091,452,88,128456,117507
4093,452,88,128456,117505
4097,453,88,128461,117506
4099,453,88,128468,117506
4102,454,88,128478,117509
4104,455,88,128477,117513
4107,456,88,128476,117522
4109,458,88,128483,117512
4111,460,88,128493,117512
4114,460,88,128505,117520
4116,461,88,128505,117529
4119,462,88,128516,117536
4121,463,88,128520,117536
4124,464,88,128528,117535
4126,464,88,128528,117540
4128,464,87,128541,117543
4131,465,87,128551,117543
4133,466,87,128559,117551
4136,467,87,128575,117544
4139,470,87,128575,117557
4142,471,87,128585,117562
4144,472,88,128596,117562
4147,474,88,128604,117564
4149,476,87,128604,117558
4151,477,87,128610,117566
4154,478,87,128625,117566
4156,479,87,128636,117574
4159,479,87,128651,117581
4161,481,87,128651,117583
4164,482,87,128659,117583
4166,483,87,128660,117583
4168,483,87,128671,117584
4171,485,87,128674,117583
4173,485,87,128681,117583
4176,486,87,128681,117594
4178,487,87,128682,117580
4182,487,87,128686,117580
4184,489,87,128686,117593
4187,490,87,128696,117590
4189,491,87,128703,117590
4191,491,87,128661,117594
4194,490,87,128661,117597
4196,490,87,128705,117584
4199,491,87,128706,117584
4201,491,87,128707,117598
4204,493,87,128707,117590
4206,494,87,128705,117590
4208,495,87,128706,117597
4211,495,87,128706,117594
4213,495,87,128712,117592
4216,495,87,128715,117592
4218,495,87,128716,117595
4221,496,87,128716,117595
4224,497,87,128714,117596
4227,498,87,128716,117596
4229,498,87,128722,117600
4231,498,87,128726,117594
4234,497,87,128726,117590
4236,497,87,128730,117592
4239,498,87,128732,117592
4241,498,86,128729,117599
4244,498,86,128729,117591
4246,500,87,128733,117601
4248,500,86,128742,117601
4251,500,86,128745,117606
4253,500,86,128753,117602
4256,501,87,128751,117599
4258,500,86,128758,117599
4261,500,86,128768,117601
4263,500,86,128770,117605
4267,501,86,128770,117599
4269,500,86,128773,117608
4271,501,86,128773,117608
4274,501,86,128771,117610
4276,501,86,128775,117609
4279,501,86,128776,117606
4281,502,86,128781,117601
4284,502,86,128778,117603
4286,502,86,128774,117611
4288,503,86,128774,117601
4291,503,86,128779,117601
4293,503,86,128768,117589
4296,503,86,128763,117584
4298,503,86,128763,117585
4301,503,86,128759,117586
4303,503,86,128745,117579
4306,503,86,128746,117581
4308,503,86,128734,117573
4311,503,86,128729,117574
4314,504,86,128719,117562
4316,504,86,128719,117565
4319,504,86,128713,117566
4321,504,86,128717,117561
4324,504,86,128719,117557
4326,504,86,128718,117558
4328,504,86,128713,117558
4331,505,86,128705,117556
4333,505,86,128714,117556
4336,505,86,128714,117554
4338,505,86,128705,117559
4341,505,86,128703,117553
4343,505,86,128705,117556
4346,505,86,128701,117551
4348,506,86,128708,117549
4350,506,86,128712,117553
4354,507,86,128716,117556
4356,507,86,128721,117556
4359,507,86,128716,117557
4361,508,86,128713,117558
4364,508,86,128719,117552
4366,509,86,128716,117553
4368,509,86,128707,117551
4371,509,86,128717,117546
4373,509,86,128723,117553
4376,508,86,128728,117548
4378,508,86,128722,117545
4381,508,85,128733,117550
4383,508,86,128723,117550
4386,508,86,128730,117547
4388,508,85,128715,117543
4390,508,86,128718,117551
4393,509,86,128727,117539
4396,509,85,128733,117540
4399,510,86,128724,117546
4401,510,86,128720,117542
4404,510,86,128724,117550
4406,511,86,128729,117548
4408,511,85,128735,117540
4411,511,85,128736,117553
4413,511,85,128746,117550
4416,511,85,128746,117559
4418,511,85,128755,117558
4421,511,86,128758,117554
4423,510,85,128772,117558
4426,510,85,128769,117563
4428,510,85,128777,117563
4430,511,85,128780,117570
4433,511,85,128789,117564
4435,511,85,128803,117568
4439,511,85,128801,117571
4441,512,85,128806,117578
4444,512,85,128814,117581
4446,512,85,128824,117584
4448,513,85,128833,117582
4451,512,85,128829,117586
4453,512,85,128838,117562
4456,511,85,128842,117589
4458,511,85,128862,117581
4461,511,85,128853,117586
4463,511,85,128864,117593
4466,511,85,128861,117593
4468,512,85,128874,117595
4470,512,85,128877,117600
4473,512,85,128885,117599
4475,512,85,128888,117599
4478,512,85,128895,117602
4481,512,85,128912,117608
4484,513,85,128909,117606
4486,513,85,128920,117607
4488,513,85,128921,117607
4491,513,85,128928,117616
4493,513,85,128939,117611
4496,514,85,128941,117620
4498,514,85,128944,117618
4501,515,85,128951,117622
4503,516,85,128961,117616
4506,516,85,128961,117614
4508,516,85,128963,117616
4510,517,85,128964,117616
4513,518,85,128971,117623
4515,519,85,128978,117621
4518,520,85,128978,117628
4520,520,85,128980,117627
4524,520,84,128985,117627
4526,520,84,128993,117629
4528,520,84,128997,117633
4531,520,85,128998,117635
4533,520,85,128998,117631
4536,521,85,129012,117639
4538,522,84,129011,117630
4541,522,85,129011,117635
4543,522,84,129016,117639
4546,523,84,129018,117639
4548,522,85,129035,117652
4550,521,85,129035,117642
4553,520,84,129031,117641
4555,519,84,129033,117641
4558,518,84,129044,117643
4560,517,84,129045,117634
4563,517,85,129040,117654
4566,517,84,129040,117648
4568,517,84,129054,117647
4571,516,84,129050,117649
4573,516,84,129050,117649
4576,513,84,129056,117648
4578,512,84,129056,117648
4581,510,84,129056,117648
4583,510,84,129065,117648
4586,509,84,129069,117651
4588,508,84,129076,117652
4590,508,84,129076,117648
4593,508,84,129080,117649
4595,508,84,129085,117649
4598,508,84,129087,117659
4600,507,84,129087,117660
4603,507,84,129096,117662
4605,507,84,129107,117662
4608,507,84,129116,117663
4611,506,84,129115,117669
4613,506,84,129115,117660
4616,506,84,129120,117665
4618,506,84,129122,117665
4621,506,84,129132,117673
4623,507,84,129132,117669
4626,507,84,129132,117673
4628,508,84,129137,117673
4630,508,84,129152,117674
4633,509,84,129151,117673
4635,509,84,129156,117673
4638,510,83,129156,117675
4640,510,83,129162,117679
4643,510,83,129170,117679
4645,510,83,129170,117676
4647,510,83,129176,117681
4651,509,83,129173,117681
4653,507,83,129188,117679
4656,500,83,129183,117676
4658,496,83,129186,117676
4661,488,83,129186,117684
4663,485,83,129186,117688
4666,486,83,129197,117688
4668,496,83,129197,117688
4670,510,83,129213,117686
4673,523,83,129211,117686
4675,537,83,129219,117691
4678,575,83,129219,117690
4680,601,83,129217,117693
4683,621,83,129223,117693
4685,642,83,129246,117697
4687,684,83,129246,117697
4690,702,83,129243,117697
4692,727,83,129252,117704
4696,764,83,129252,117708
4698,779,83,129257,117709
4701,781,83,129259,117709
4703,770,83,129270,117716
4706,723,84,129270,117703
4708,679,83,129279,117708
4710,642,83,129272,117708
4713,598,83,129290,117715
4715,555,83,129286,117716
4718,491,83,129286,117722
4720,460,83,129302,117719
4723,444,83,129311,117719
4725,433,83,129325,117727
4727,429,83,129325,117727
4730,428,83,129315,117733
4732,431,83,129325,117733
4736,435,83,129331,117732
4738,439,83,129339,117739
4741,443,83,129338,117736
4743,452,83,129353,117743
4746,455,83,129365,117738
4748,458,83,129374,117749
4750,460,83,129374,117747
4753,463,83,129377,117747
4755,465,83,129378,117747
4758,468,83,129396,117752
4760,470,83,129399,117754
4763,472,83,129398,117758
4765,474,83,129403,117760
4767,475,83,129408,117760
4770,476,83,129416,117758
4772,480,83,129421,117760
4775,481,82,129425,117769
4777,481,82,129436,117762
4781,481,83,129434,117766
4783,483,83,129451,117771
4786,484,83,129448,117764
4788,485,82,129443,117768
4790,487,82,129450,117779
4793,488,82,129459,117770
4795,491,82,129456,117770
4798,492,82,129463,117780
4800,493,82,129454,117765
4803,493,82,129461,117773
4805,495,82,129461,117776
4807,495,82,129466,117779
4810,496,82,129477,117776
4812,497,83,129489,117781
4815,499,83,129493,117784
4817,499,82,129494,117788
4820,500,83,129500,117788
4823,501,82,129502,117785
4826,501,82,129508,117792
4828,504,83,129504,117790
4830,505,82,129505,117798
4833,506,82,129515,117792
4835,507,82,129529,117800
4838,509,82,129541,117798
4840,510,83,129544,117800
4843,510,83,129546,117805
4845,511,82,129549,117798
4847,511,82,129562,117807
4850,513,83,129559,117813
4852,513,82,129567,117811
4855,514,83,129584,117811
4857,515,83,129591,117817
4860,517,82,129589,117822
4862,518,83,129603,117823
4866,519,83,129600,117829
4868,520,83,129605,117821
4870,522,82,129611,117822
4873,526,83,129605,117826
4875,527,82,129608,117828
4878,527,83,129620,117828
4880,528,83,129626,117825
4883,529,82,129616,117828
4885,532,83,129629,117826
4887,534,83,129624,117829
4890,536,83,129617,117832
4892,538,83,129625,117822
4895,540,83,129612,117824
4897,543,83,129611,117824
4900,544,83,129623,117824
4902,546,83,129600,117812
4905,547,83,129591,117816
4908,550,83,129580,117803
4910,552,83,129566,117803
4913,553,83,129546,117786
4915,554,83,129515,117755
4918,556,83,129494,117756
4920,556,83,129474,117754
4923,557,83,129450,117740
4925,558,83,129406,117728
4927,558,83,129369,117707
4930,558,83,129336,117694
4932,559,83,129297,117666
4935,560,83,129258,117650
4937,559,83,129220,117637
4940,559,83,129175,117619
4942,558,83,129139,117596
4945,558,83,129078,117563
4947,556,83,129054,117564
4950,555,83,129009,117544
4953,552,83,128973,117536
4955,548,83,128932,117517
4958,545,83,128899,117503
4960,539,83,128859,117483
4963,536,83,128821,117462
4965,530,83,128790,117457
4967,527,83,128790,117448
4970,523,83,128731,117432
4972,516,83,128697,117418
4975,512,83,128677,117404
4977,506,83,128637,117397
4980,503,83,128621,117388
4982,495,83,128612,117383
4985,491,83,128612,117371
4987,487,82,128546,117363
4989,483,83,128539,117363
4993,474,82,128531,117349
4995,470,82,128510,117333
4998,467,82,128510,117324
5000,464,82,128477,117320
5003,462,82,128472,117320
5005,460,82,128454,117309
5007,459,82,128447,117307
5010,455,82,128429,117314
5012,453,82,128429,117306
5015,452,82,128410,117299
5017,452,82,128414,117288
5020,452,82,128414,117300
5022,454,82,128393,117292
5025,454,82,128396,117292
5027,452,82,128392,117290
5029,453,82,128392,117284
5032,454,82,128390,117293
5035,456,82,128393,117293
5038,456,82,128394,117298
5040,455,82,128397,117290
5043,455,82,128399,117300
5045,458,82,128399,117294
5047,460,82,128395,117297
5050,462,82,128396,117296
5052,462,82,128404,117296
5055,465,82,128410,117298
5057,465,82,128410,117306
5060,466,82,128419,117304
5062,465,82,128436,117304
5065,465,82,128442,117308
5067,468,82,128446,117309
5069,470,82,128446,117313
5072,472,82,128455,117320
5074,472,82,128466,117320
5078,473,82,128470,117319
5080,474,82,128470,117327
5083,475,82,128482,117322
5085,476,82,128482,117322
5087,476,82,128496,117335
5090,476,82,128496,117331
5092,477,82,128506,117336
5095,478,82,128514,117336
5097,478,82,128517,117333
5100,479,82,128525,117347
5102,483,82,128525,117341
5105,486,82,128526,117341
5107,486,82,128529,117341
5109,487,82,128543,117339
5112,488,82,128538,117335
5114,488,82,128539,117335
5117,489,82,128539,117336
5120,489,82,128535,117340
5123,490,82,128539,117340
5125,491,82,128539,117338
5127,492,82,128543,117339
5130,493,82,128536,117339
5132,492,82,128509,117336
5135,492,82,128543,117336
5137,492,82,128539,117336
5140,492,82,128539,117333
5142,493,82,128545,117336
5145,495,82,128548,117336
5147,495,82,128548,117339
5149,496,82,128555,117334
5152,496,82,128544,117334
5154,496,82,128545,117334
5157,495,82,128545,117334
5159,495,82,128550,117335
5163,496,82,128551,117335
5165,496,82,128546,117334
5167,496,82,128546,117328
5170,497,82,128548,117328
5172,497,82,128551,117336
5175,498,82,128551,117335
5177,499,82,128555,117337
5180,500,82,128557,117337
5182,500,82,128553,117339
5185,500,82,128553,117338
5187,499,81,128560,117334
5189,500,82,128554,117334
5192,500,82,128556,117334
5194,500,82,128552,117332
5197,500,82,128552,117332
5199,500,82,128564,117328
5202,501,82,128557,117328
5204,501,82,128560,117327
5207,500,82,128560,117330
5210,500,82,128557,117329
5212,501,82,128553,117329
5215,500,82,128548,117333
5217,500,82,128547,117318
5220,499,82,128546,117326
5222,496,81,128555,117326
5225,497,82,128553,117323
5227,498,82,128545,117320
5229,500,81,128545,117323
5232,501,81,128546,117323
5234,504,82,128541,117323
5237,505,81,128551,117321
5239,506,81,128538,117311
5242,506,81,128531,117308
5244,506,81,128545,117308
5246,506,81,128533,117305
5250,503,81,128524,117309
5252,501,81,128523,117303
5255,501,81,128520,117303
5257,505,81,128500,117296
5260,507,81,128499,117292
5262,508,81,128504,117290
5265,507,81,128503,117285
5267,506,81,128498,117291
5269,505,81,128494,117288
5272,505,81,128479,117279
5274,505,81,128470,117270
5277,505,81,128474,117269
5279,506,81,128462,117268
5282,506,81,128452,117266
5284,506,81,128457,117263
5286,506,81,128461,117264
5289,508,81,128460,117270
5292,508,81,128461,117271
5295,507,81,128457,117265
5297,507,81,128449,117257
5300,507,81,128446,117260
5302,507,81,128435,117254
5305,506,81,128435,117253
5307,506,81,128439,117249
5309,506,81,128439,117249
5312,508,81,128436,117251
5314,508,81,128441,117245
5317,509,81,128430,117252
5319,510,81,128422,117242
5322,509,81,128430,117242
5324,509,81,128417,117236
5326,509,81,128417,117238
5329,510,81,128427,117237
5331,510,81,128422,117237
5335,509,81,128416,117237
5337,509,81,128416,117241
5340,509,81,128416,117242
5342,508,81,128416,117236
5345,508,81,128420,117230
5347,511,81,128411,117239
5349,510,81,128408,117234
5352,510,81,128425,117233
5354,509,81,128428,117230
5357,509,81,128414,117235
5359,508,81,128429,117241
5362,509,81,128421,117243
5364,510,81,128427,117242
5366,510,81,128432,117232
5369,510,81,128436,117238
5371,510,81,128429,117238
5374,511,81,128428,117244
5377,511,81,128438,117241
5380,511,81,128443,117236
5382,511,81,128446,117242
5385,513,80,128439,117243
5387,514,81,128441,117244
5389,515,81,128450,117239
5392,515,80,128458,117244
5394,516,80,128456,117246
5397,517,80,128451,117246
5399,518,80,128455,117251
5402,518,81,128463,117244
5404,518,81,128463,117249
5406,518,80,128470,117250
5409,517,80,128474,117255
5411,517,80,128479,117253
5414,516,80,128486,117255
5416,516,80,128490,117254
5420,517,80,128494,117255
5422,518,80,128503,117267
5425,518,80,128505,117256
5427,520,80,128506,117262
5429,520,80,128505,117260
5432,520,80,128521,117266
5434,520,80,128529,117262
5437,520,80,128522,117268
5439,519,80,128535,117267
5442,518,80,128535,117273
5444,516,80,128550,117270
5446,515,80,128548,117270
5449,515,80,128562,117277
5451,514,80,128558,117278
5454,514,80,128566,117276
5456,513,80,128574,117269
5459,513,80,128566,117279
5462,511,80,128591,117279
5465,509,80,128591,117279
5467,508,80,128573,117281
5469,507,80,128581,117281
5472,505,80,128592,117285
5474,504,80,128590,117274
5477,504,80,128590,117281
5479,505,80,128598,117278
5482,505,80,128600,117278
5484,505,80,128606,117288
5486,504,80,128606,117281
5489,504,80,128605,117283
5491,504,80,128610,117283
5494,504,80,128619,117286
5496,504,80,128618,117284
5499,504,80,128618,117286
5501,505,80,128624,117289
5505,505,80,128627,117289
5507,505,80,128632,117286
5509,505,80,128632,117285
5512,504,80,128635,117293
5514,504,80,128639,117293
5517,503,80,128649,117291
5519,504,80,128649,117291
5522,505,80,128650,117301
5524,505,80,128650,117299
5526,506,80,128661,117305
5529,506,80,128662,117297
5531,507,80,128664,117297
5534,506,80,128668,117301
5536,505,80,128668,117304
5539,504,80,128679,117304
5541,502,80,128684,117304
5544,498,80,128703,117302
5547,488,79,128691,117307
5549,483,80,128691,117315
5552,480,80,128708,117317
5554,482,80,128708,117317
5557,492,79,128718,117325
5559,502,79,128718,117325
5562,513,80,128735,117325
5564,542,79,128735,117323
5566,564,80,128740,117334
5569,590,79,128762,117334
5571,606,80,128768,117334
5574,647,80,128768,117334
5576,663,80,128775,117334
5579,687,80,128783,117350
5581,728,80,128783,117338
5584,750,80,128796,117351
5586,761,80,128816,117351
5588,764,80,128825,117351
5592,743,80,128838,117353
5594,726,80,128841,117353
5597,666,80,128841,117357
5599,619,80,128853,117367
5602,585,80,128867,117367
5604,528,80,128867,117366
5606,488,80,128881,117373
5609,466,80,128891,117373
5611,451,80,128868,117375
5614,433,80,128904,117377
5616,430,79,128913,117377
5619,431,79,128913,117386
5621,435,79,128920,117383
5624,439,79,128928,117383
5626,444,79,128928,117384
5628,449,79,128938,117393
5632,452,79,128950,117393
5634,454,79,128948,117394
5637,458,79,128948,117394
5639,460,79,128962,117393
5642,460,79,128952,117393
5644,462,79,128972,117401
5646,466,79,128972,117404
5649,468,79,128965,117404
5651,470,79,128986,117407
5654,472,79,128986,117408
5656,473,79,128997,117416
5659,474,79,129009,117416
5661,475,79,129008,117425
5664,476,79,129008,117432
5666,478,79,129018,117426
5668,479,79,129015,117426
5671,480,79,129037,117423
5673,482,79,129049,117431
5677,484,79,129049,117441
5679,486,79,129051,117441
5682,488,79,129059,117439
5684,488,79,129065,117440
5686,489,79,129065,117442
5689,491,79,129084,117445
5691,491,79,129085,117445
5694,492,79,129098,117450
5696,492,79,129105,117454
5699,493,79,129116,117463
5701,495,79,129132,117471
5704,496,78,129150,117472
5706,497,78,129160,117472
5708,499,79,129160,117481
5711,499,78,129171,117481
5713,501,78,129173,117483
5716,502,78,129193,117486
5719,503,78,129199,117491
5722,504,78,129208,117489
5724,505,78,129223,117491
5726,506,78,129220,117492
5729,507,78,129226,117499
5731,508,78,129234,117503
5734,509,78,129248,117505
5736,510,78,129243,117508
5739,512,78,129257,117517
5741,513,78,129269,117520
5744,514,78,129284,117527
5746,517,78,129295,117514
5748,518,78,129292,117523
5751,519,78,129299,117528
5753,520,78,129305,117517
5756,522,78,129318,117529
5758,525,78,129321,117529
5762,526,78,129322,117537
5764,527,78,129341,117540
5766,528,78,129350,117546
5769,530,78,129347,117540
5771,531,78,129359,117547
5774,531,78,129368,117557
5776,533,78,129369,117550
5779,535,78,129387,117560
5781,539,78,129374,117561
5784,540,78,129376,117560
5786,542,78,129394,117551
5788,544,78,129393,117552
5791,548,78,129398,117557
5793,549,78,129398,117557
5796,551,78,129384,117560
5798,553,78,129373,117551
5801,554,78,129364,117543
5804,557,78,129346,117533
5806,558,78,129317,117520
5809,558,78,129311,117515
5811,559,78,129286,117493
5814,560,78,129261,117492
5816,561,78,129234,117478
5819,561,78,129197,117476
5821,561,78,129170,117455
5824,561,78,129145,117435
5826,561,78,129103,117425
5828,561,78,129070,117407
5831,561,78,129041,117395
5833,560,78,129007,117375
5836,558,78,128961,117357
5838,556,78,128941,117351
5841,553,78,128901,117332
5843,549,78,128869,117318
5846,547,78,128846,117305
5849,544,78,128812,117296
5851,541,78,128791,117283
5854,533,78,128748,117273
5856,528,78,128726,117263
5859,524,78,128707,117244
5861,520,78,128671,117239
5864,514,78,128641,117221
5866,505,77,128633,117228
5868,501,78,128604,117213
5871,497,78,128580,117205
5873,492,78,128572,117201
5876,487,77,128541,117196
5878,480,77,128534,117189
5881,477,77,128523,117185
5883,472,77,128507,117181
5885,470,77,128497,117171
5889,468,77,128490,117169
5891,465,77,128470,117167
5894,462,77,128462,117166
5896,460,77,128462,117155
5899,459,77,128453,117155
5901,459,77,128446,117151
5904,458,77,128442,117153
5906,458,77,128449,117147
5908,458,77,128440,117148
5911,457,77,128446,117146
5913,458,77,128439,117152
5916,457,77,128436,117151
5918,457,77,128444,117146
5921,456,77,128444,117155
5923,457,77,128448,117148
5925,458,77,128446,117148
5928,459,77,128461,117161
5931,460,77,128458,117145
5934,461,77,128474,117162
5936,463,77,128470,117168
5939,464,77,128477,117160
5941,466,77,128488,117170
5944,467,77,128488,117169
5946,467,77,128495,117172
5948,468,77,128499,117172
5951,469,77,128514,117180
5953,470,77,128535,117172
5956,471,77,128535,117188
5958,473,77,128539,117186
5961,474,77,128550,117186
5963,475,77,128559,117197
5965,475,77,128559,117202
5968,477,77,128577,117200
5970,477,77,128585,117200
5974,478,76,128606,117209
5976,479,77,128602,117208
5979,480,76,128602,117217
5981,481,77,128626,117222
5984,482,77,128634,117222
5986,484,76,128644,117233
5988,484,77,128644,117237
5991,484,77,128666,117239
5993,485,76,128674,117239
5996,486,76,128686,117241
5998,487,77,128696,117241
6001,488,76,128687,117252
6003,489,76,128687,117247
6005,489,76,128702,117258
6008,490,76,128713,117259
6010,490,76,128722,117259
6013,490,76,128725,117258
6016,491,76,128725,117263
6019,491,77,128738,117264
6021,492,76,128742,117264
6024,492,77,128754,117264
6026,493,76,128754,117267
6028,494,76,128756,117275
6031,495,76,128765,117270
6033,495,76,128765,117274
6036,496,76,128768,117276
6038,496,76,128768,117276
6041,495,76,128787,117282
6043,495,76,128787,117278
6045,495,76,128789,117280
6048,496,76,128804,117290
6050,496,76,128808,117290
6053,496,76,128808,117288
6055,497,76,128814,117288
6059,497,76,128814,117299
6061,498,76,128814,117300
6064,499,76,128828,117298
6066,500,76,128841,117298
6068,499,76,128847,117299
6071,498,76,128846,117299
6073,498,76,128851,117299
6076,498,76,128851,117306
6078,498,76,128850,117307
6081,498,76,128853,117307
6083,499,76,128853,117302
6085,499,76,128871,117312
6088,499,76,128871,117312
6090,499,76,128834,117305
6093,502,76,128834,117314
6095,502,76,128878,117312
6098,502,76,128876,117312
6100,503,76,128881,117308
6104,503,76,128881,117307
6106,503,76,128863,117307
6108,504,76,128864,117312
6111,504,76,128864,117315
6113,504,76,128870,117309
6116,504,76,128868,117309
6118,504,76,128866,117310
6121,505,76,128866,117307
6123,505,76,128869,117304
6125,505,76,128870,117304
6128,505,76,128873,117304
6130,504,76,128869,117310
6133,505,76,128869,117300
6135,505,76,128874,117308
6138,504,76,128860,117308
6140,504,76,128868,117303
6144,504,76,128868,117299
6146,505,76,128868,117309
6148,505,76,128871,117309
6151,505,76,128864,117300
6153,506,76,128870,117309
6156,506,76,128870,117301
6158,506,76,128868,117301
6161,506,76,128865,117306
6163,506,75,128860,117305
6165,506,76,128860,117293
6168,504,76,128862,117297
6170,504,76,128854,117297
6173,505,76,128856,117294
6175,505,76,128851,117294
6178,506,75,128856,117292
6180,507,75,128856,117294
6183,508,75,128855,117296
6185,508,75,128848,117291
6188,508,75,128848,117286
6191,508,76,128844,117286
6193,510,75,128843,117284
6196,510,75,128853,117291
6198,509,75,128836,117288
6201,509,75,128857,117283
6203,508,75,128854,117285
6205,508,75,128854,117284
6208,508,75,128842,117288
6210,508,76,128842,117277
6213,509,75,128856,117285
6215,508,75,128842,117287
6218,508,75,128845,117287
6220,509,75,128858,117280
6223,509,75,128852,117288
6225,510,75,128862,117285
6227,511,75,128859,117286
6231,511,75,128860,117297
6233,510,75,128859,117285
6236,510,75,128858,117290
6238,512,75,128858,117287
6241,512,75,128852,117292
6243,513,75,128869,117288
6245,514,75,128869,117299
6248,516,75,128881,117294
6250,516,75,128881,117289
6253,516,75,128873,117290
6255,517,75,128879,117295
6258,517,75,128885,117298
6260,518,75,128880,117300
6263,517,75,128887,117301
6265,517,75,128891,117297
6267,516,75,128904,117300
6270,517,75,128898,117300
6273,517,75,128913,117302
6276,517,75,128910,117304
6278,518,75,128911,117307
6281,519,75,128915,117308
6283,520,75,128923,117312
6285,521,75,128931,117315
6288,521,75,128934,117313
6290,520,75,128940,117320
6293,519,75,128947,117315
6295,519,75,128960,117318
6298,518,75,128970,117324
6300,516,75,128974,117329
6303,515,75,128971,117326
6305,515,75,128981,117328
6307,515,75,128987,117329
6310,514,75,128984,117332
6312,511,75,128989,117338
6316,509,75,129002,117348
6318,508,75,129012,117344
6321,507,75,129007,117349
6323,507,75,129026,117357
6325,506,75,129032,117354
6328,505,75,129035,117352
6330,505,75,129039,117356
6333,505,75,129049,117361
6335,505,75,129055,117363
6338,505,75,129062,117367
6340,505,75,129065,117360
6343,506,75,129075,117370
6345,506,75,129079,117374
6347,505,75,129091,117372
6350,505,75,129088,117374
6352,505,75,129097,117379
6355,505,75,129107,117382
6358,505,76,129109,117377
6361,504,76,129120,117382
6363,504,75,129131,117394
6365,505,75,129132,117394
6368,505,75,129148,117395
6370,505,75,129155,117402
6373,506,75,129160,117398
6375,506,76,129167,117407
6378,505,75,129176,117410
6380,506,75,129194,117415
6383,506,75,129198,117409
6385,506,75,129202,117416
6387,506,75,129213,117415
6390,503,76,129222,117423
6392,499,76,129222,117417
6395,494,75,129222,117427
6397,487,75,129234,117431
6401,483,75,129230,117431
6403,482,75,129249,117435
6405,486,76,129251,117427
6408,502,75,129256,117436
6410,516,75,129272,117439
6413,529,75,129269,117444
6415,551,75,129271,117441
6418,588,75,129286,117448
6420,611,76,129287,117447
6423,631,76,129287,117450
6425,657,75,129301,117459
6427,691,76,129301,117453
6430,709,76,129318,117456
6432,731,76,129318,117454
6435,744,76,129321,117461
6437,750,76,129335,117465
6440,741,76,129335,117462
6443,717,76,129334,117468
6445,692,76,129340,117468
6448,622,76,129356,117474
6450,595,76,129357,117474
6453,536,76,129362,117473
6455,508,76,129362,117478
6458,475,76,129367,117484
6460,447,76,129378,117479
6463,437,75,129378,117481
6465,430,76,129390,117486
6467,428,76,129384,117486
6470,429,75,129398,117490
6472,435,75,129398,117485
6475,439,75,129405,117496
6477,444,75,129416,117496
6480,448,75,129428,117495
6482,456,75,129425,117503
6484,459,75,129436,117503
6488,464,75,129434,117503
6490,465,75,129434,117510
6493,468,75,129448,117505
6495,470,75,129448,117505
6498,472,75,129451,117508
6500,475,75,129451,117511
6503,477,75,129458,117517
6505,478,75,129465,117514
6507,478,75,129465,117517
6510,479,75,129471,117522
6512,480,75,129469,117522
6515,481,75,129479,117522
6517,484,74,129479,117523
6520,485,74,129482,117524
6522,486,74,129485,117524
6524,487,75,129497,117526
6528,490,75,129498,117525
6530,491,75,129494,117525
6533,492,74,129503,117525
6535,494,75,129503,117530
6538,494,74,129506,117530
6540,495,74,129506,117534
6543,496,74,129514,117532
6545,498,74,129515,117532
6547,498,74,129528,117538
6550,499,74,129526,117538
6552,500,75,129536,117538
6555,501,74,129536,117532
6557,502,75,129533,117541
6560,503,74,129533,117541
6562,504,75,129533,117538
6564,506,74,129537,117539
6567,507,75,129546,117539
6569,508,75,129556,117541
6573,509,75,129556,117538
6575,510,75,129549,117538
6578,511,75,129549,117550
6580,511,75,129556,117546
6583,512,75,129564,117546
6585,513,75,129564,117546
6587,514,75,129559,117549
6590,514,75,129577,117552
6592,515,75,129577,117557
6595,517,75,129569,117555
6597,518,75,129571,117555
6600,519,75,129574,117555
6602,520,75,129600,117568
6604,522,75,129600,117561
6607,523,75,129598,117561
6609,524,75,129602,117566
6612,526,75,129602,117573
6615,527,75,129606,117573
6618,529,75,129613,117567
6620,530,75,129615,117574
6623,532,75,129615,117569
6625,533,75,129629,117578
6627,535,75,129626,117578
6630,536,75,129630,117577
6632,539,75,129628,117583
6635,541,75,129634,117571
6637,544,75,129641,117579
6640,545,75,129620,117573
6642,547,75,129623,117572
6644,548,75,129623,117568
6647,550,75,129618,117570
6649,552,75,129606,117570
6652,553,75,129595,117565
6654,555,75,129584,117550
6658,556,75,129576,117545
6660,558,75,129550,117531
6663,559,75,129507,117521
6665,559,75,129507,117498
6667,561,75,129486,117498
6670,561,75,129456,117493
6672,561,75,129425,117473
6675,560,75,129395,117458
6677,559,75,129376,117451
6680,558,75,129334,117434
6682,558,75,129305,117426
6684,556,75,129277,117414
6687,555,75,129243,117394
6689,550,75,129211,117382
6692,548,75,129176,117370
6694,545,75,129151,117357
6697,542,75,129136,117345
6700,535,75,129107,117333
6703,531,75,129076,117320
6705,526,75,129041,117309
6707,522,75,129017,117300
6710,517,75,128991,117287
6712,511,75,128967,117281
6715,506,75,128942,117277
6717,502,75,128916,117260
6720,497,75,128917,117256
6722,492,75,128890,117250
6724,487,75,128879,117249
6727,479,75,128861,117245
6729,476,75,128847,117235
6732,473,75,128827,117224
6734,471,75,128813,117222
6737,468,75,128798,117214
6739,465,75,128798,117215
6743,463,75,128783,117218
6745,461,75,128781,117211
6747,459,75,128784,117209
6750,458,75,128780,117210
6752,457,75,128776,117207
6755,456,75,128767,117205
6757,456,75,128763,117209
6760,455,75,128758,117203
6762,455,75,128756,117201
6764,455,75,128759,117208
6767,457,75,128753,117206
6769,457,75,128755,117212
6772,457,75,128763,117203
6774,459,75,128764,117211
6777,460,75,128779,117211
6779,462,75,128783,117220
6782,463,75,128777,117212
6785,464,75,128784,117222
6787,465,75,128792,117221
6790,466,75,128789,117228
6792,467,75,128794,117234
6795,468,75,128806,117234
6797,468,75,128818,117239
6800,469,75,128819,117238
6802,470,75,128818,117247
6804,472,75,128838,117245
6807,474,75,128844,117248
6809,475,75,128847,117249
6812,475,75,128852,117261
6814,476,75,128860,117255
6817,476,75,128872,117260
6819,478,75,128888,117264
6822,479,75,128902,117267
6824,479,75,128906,117275
6827,479,75,128921,117282
6830,480,75,128916,117278
6832,481,75,128920,117281
6835,483,75,128922,117292
6837,485,75,128952,117290
6840,486,75,128954,117291
6842,487,75,128956,117293
6844,487,75,128979,117301
6847,487,75,128983,117299
6849,487,75,128978,117309
6852,488,75,128987,117313
6854,489,75,128996,117299
6857,490,75,129007,117314
6859,490,75,129011,117319
6862,491,75,129020,117324
6864,492,75,129033,117324
6866,492,75,129028,117323
6870,492,75,129047,117326
6872,492,75,129053,117325
6875,493,75,129053,117325
6877,493,75,129065,117335
6880,494,75,129065,117333
6882,494,75,129071,117337
6884,494,75,129074,117337
6887,494,75,129095,117342
6889,495,75,129092,117337
6892,495,75,129100,117347
6894,495,75,129105,117344
6897,495,75,129111,117351
6899,496,75,129116,117352
6902,496,75,129116,117357
6904,497,75,129132,117357
6906,498,75,129134,117357
6909,497,75,129152,117362
6912,497,75,129162,117360
6915,497,75,129162,117363
6917,498,75,129161,117367
6920,499,75,129177,117367
6922,499,75,129180,117367
6924,500,75,129180,117373
6927,500,75,129177,117377
6929,500,75,129183,117377
6932,500,75,129198,117379
6934,499,75,129195,117384
6937,500,75,129195,117377
6939,500,75,129199,117376
6942,501,75,129195,117376
6944,502,75,129192,117379
6946,502,75,129192,117380
6949,502,75,129203,117384
6951,502,75,129209,117384
6955,501,75,129213,117384
6957,502,76,129211,117376
6960,502,75,129201,117386
6962,502,75,129201,117376
6964,502,75,129202,117379
6967,502,76,129200,117375
6969,503,75,129193,117375
6972,504,76,129197,117376
6974,503,75,129197,117376
6977,502,75,129192,117381
6979,502,76,129189,117381
6982,502,76,129190,117378
6984,503,76,129190,117369
6986,504,75,129184,117370
6989,504,76,129180,117375
6991,504,76,129180,117367
6994,505,76,129175,117365
6996,506,76,129181,117365
7000,506,76,129177,117370
7002,507,76,129177,117363
7004,506,76,129160,117360
7007,506,76,129152,117360
7009,506,76,129143,117360
7012,506,76,129155,117357
7014,506,76,129152,117357
7017,506,76,129157,117350
7019,506,76,129157,117347
7022,507,76,129146,117351
7024,508,76,129143,117355
7026,508,76,129143,117349
7029,509,76,129130,117349
7031,509,76,129137,117353
7034,510,76,129133,117353
7036,510,76,129133,117350
7040,510,76,129129,117350
7042,511,76,129127,117350
7044,512,76,129134,117347
7047,514,76,129134,117344
7049,515,76,129131,117343
7052,515,76,129132,117343
7054,515,76,129134,117345
7057,516,76,129134,117355
7059,516,76,129132,117355
7062,517,76,129132,117341
7064,517,76,129133,117345
7066,518,76,129122,117345
7069,519,76,129135,117344
7071,520,76,129143,117356
7074,521,76,129143,117354
7076,522,76,129136,117344
7079,523,76,129134,117344
7081,522,76,129139,117349
7084,522,76,129142,117352
7087,520,76,129142,117351
7089,518,76,129142,117352
7092,518,77,129155,117352
7094,517,76,129155,117361
7097,516,76,129155,117359
7099,515,76,129165,117360
7102,515,76,129166,117360
7104,513,76,129163,117358
7106,512,76,129176,117366
7109,511,76,129184,117367
7111,508,77,129194,117370
7114,507,77,129201,117373
7116,506,76,129207,117377
7119,505,77,129207,117381
7121,504,76,129213,117378
7123,504,77,129215,117378
7127,504,77,129222,117393
7129,504,77,129239,117385
7132,504,77,129239,117381
7134,505,77,129244,117387
7137,506,77,129264,117393
7139,505,77,129264,117395
7142,505,77,129264,117404
7144,505,77,129278,117404
7146,505,77,129279,117396
7149,505,77,129284,117408
7151,505,77,129295,117410
7154,505,77,129307,117407
7156,505,77,129314,117410
7159,505,77,129317,117420
7161,505,77,129327,117422
7163,506,77,129337,117430
7166,506,77,129351,117423
7169,507,77,129345,117430
7172,507,77,129355,117439
7174,507,77,129376,117440
7177,506,77,129390,117447
7179,506,77,129395,117447
7182,506,77,129398,117448
7184,506,77,129403,117453
7186,504,77,129419,117461
7189,500,77,129407,117462
7191,490,78,129421,117464
7194,485,78,129423,117465
7196,483,78,129441,117468
7199,483,78,129451,117467
7201,490,78,129456,117474
7203,502,78,129465,117475
7206,528,78,129462,117472
7208,543,78,129476,117477
7212,563,78,129475,117475
7214,582,78,129478,117481
7217,609,78,129484,117485
7219,651,78,129487,117492
7222,673,78,129495,117487
7224,696,79,129502,117490
7226,718,78,129514,117489
7229,738,79,129529,117495
7231,754,79,129528,117500
7234,752,79,129529,117497
7236,740,79,129533,117506
7239,714,79,129541,117507
7241,677,79,129547,117516
7243,634,79,129549,117508
7246,560,79,129558,117512
7248,529,79,129563,117513
7251,501,79,129578,117514
7254,470,79,129576,117520
7257,449,79,129591,117518
7259,434,79,129594,117527
7262,430,79,129599,117517
7264,430,79,129606,117529
7266,432,79,129613,117537
7269,437,79,129605,117533
7271,446,79,129608,117538
7274,451,79,129628,117540
7276,454,79,129619,117537
7279,458,79,129623,117543
7281,462,79,129633,117548
7283,464,79,129638,117544
7286,468,79,129648,117542
7288,469,79,129645,117555
7291,471,79,129657,117548
7293,473,79,129657,117556
7297,475,79,129660,117555
7299,477,79,129670,117562
7302,479,79,129681,117564
7304,480,79,129685,117562
7306,481,79,129687,117566
7309,482,79,129687,117570
7311,483,79,129688,117564
7314,485,80,129689,117569
7316,486,79,129699,117576
7319,487,80,129700,117572
7321,487,80,129703,117580
7323,488,80,129709,117577
7326,489,79,129718,117574
7328,490,80,129715,117578
7331,493,80,129723,117578
7333,494,79,129724,117579
7336,495,80,129724,117584
7339,496,80,129723,117592
7342,496,80,129734,117579
7344,498,80,129739,117584
7346,500,80,129741,117584
7349,500,80,129749,117589
7351,500,80,129738,117588
7354,502,80,129749,117588
7356,504,80,129756,117587
7359,504,80,129756,117582
7361,506,80,129765,117596
7363,506,80,129763,117596
7366,507,80,129782,117599
7368,508,80,129773,117598
7371,509,80,129783,117598
7373,510,80,129782,117605
7376,511,80,129797,117610
7378,513,80,129801,117607
7382,513,80,129801,117597
7384,514,80,129797,117605
7386,515,80,129802,117605
7389,515,80,129811,117614
7391,516,80,129812,117614
7394,517,80,129812,117611
7396,519,80,129823,117609
7399,520,80,129820,117609
7401,522,80,129834,117619
7403,523,80,129834,117619
7406,524,80,129838,117624
7408,525,80,129845,117624
7411,526,80,129853,117630
7413,529,80,129854,117626
7416,531,80,129854,117628
7418,533,80,129857,117633
7421,534,80,129863,117633
7424,537,80,129869,117636
7426,538,80,129869,117635
7429,540,80,129863,117637
7431,542,80,129869,117637
7434,543,80,129873,117637
7436,546,80,129865,117636
7439,547,80,129860,117634
7441,550,80,129860,117624
7443,551,80,129858,117620
7446,553,80,129825,117614
7448,554,81,129816,117614
7451,556,80,129803,117598
7453,557,80,129803,117601
7456,558,80,129781,117583
7458,559,80,129734,117583
7461,559,80,129716,117576
7463,559,81,129716,117550
7465,559,81,129688,117534
7469,559,81,129628,117523
7471,558,81,129628,117506
7474,558,81,129562,117491
7476,557,81,129533,117491
7479,556,81,129511,117484
7481,552,81,129511,117458
7483,550,81,129482,117445
7486,548,81,129403,117445
7488,546,81,129383,117429
7491,541,81,129383,117401
7493,538,81,129326,117401
7496,535,81,129295,117392
7498,527,81,129295,117369
7501,522,81,129267,117357
7503,518,81,129212,117357
7505,513,81,129197,117346
7508,505,81,129197,117328
7511,500,81,129164,117317
7514,497,81,129123,117317
7516,493,81,129106,117314
7519,487,81,129106,117292
7521,485,81,129064,117292
7523,481,81,129041,117291
7526,476,81,129041,117274
7528,473,81,129031,117269
7531,471,81,129010,117269
7533,469,81,128997,117273
7536,465,81,128997,117249
7538,464,81,128983,117253
7541,463,81,128962,117253
7543,462,81,128962,117247
7545,461,81,128958,117245
7548,461,81,128948,117245
7550,460,81,128948,117236
7554,460,81,128941,117240
7556,460,81,128944,117237
7559,460,81,128935,117237
7561,461,81,128937,117239
7563,462,81,128937,117250
7566,462,81,128935,117250
7568,462,81,128935,117243
7571,463,81,128947,117254
7573,464,81,128949,117252
7576,465,81,128946,117252
7578,466,81,128957,117261
7581,467,81,128964,117258
7583,468,81,128972,117262
7585,470,81,128981,117262
7588,470,81,128978,117271
7590,471,81,128978,117274
7593,473,81,128998,117276
7596,474,81,129005,117276
7599,475,81,129006,117281
7601,475,81,129021,117289
7603,476,81,129027,117287
7606,477,81,129039,117293
7608,479,81,129050,117291
7611,479,81,129073,117298
7613,480,81,129073,117306
7616,481,81,129071,117306
7618,482,81,129080,117313
7621,483,81,129105,117312
7623,483,81,129099,117319
7625,484,81,129108,117319
7628,484,81,129122,117320
7630,485,81,129131,117327
7633,485,81,129141,117330
7635,485,81,129142,117334
7639,486,81,129145,117338
7641,486,81,129149,117337
7643,487,81,129166,117339
7646,488,81,129168,117340
7648,489,81,129193,117348
7651,489,81,129181,117356
7653,490,81,129203,117354
7656,490,81,129208,117350
7658,490,80,129224,117362
7661,490,81,129232,117363
7663,491,81,129243,117366
7665,491,81,129247,117365
7668,492,80,129249,117376
7670,492,81,129267,117379
7673,493,80,129262,117385
7675,493,81,129277,117385
7678,493,80,129288,117387
7681,494,81,129295,117391
7683,495,81,129298,117394
7686,495,81,129304,117393
7688,495,81,129317,117398
7691,494,81,129323,117407
7693,495,81,129333,117404
7696,495,81,129340,117414
7698,496,81,129354,117410
7701,496,81,129361,117410
7703,497,81,129370,117416
7705,497,80,129374,117423
7708,497,81,129383,117425
7710,498,80,129399,117426
7713,499,80,129395,117427
7715,499,81,129394,117431
7718,499,81,129414,117438
7720,499,81,129408,117433
7723,499,81,129415,117441
7726,499,81,129419,117439
7728,499,81,129424,117443
7731,500,81,129424,117442
7733,500,81,129425,117437
7736,500,81,129435,117442
7738,500,81,129435,117447
7741,501,81,129432,117443
7743,501,81,129440,117450
7745,501,81,129442,117453
7748,502,81,129434,117445
7750,503,81,129445,117446
7753,504,81,129427,117448
7755,504,80,129429,117446
7758,503,81,129441,117446
7760,502,81,129436,117443
7762,502,81,129434,117444
7766,502,81,129435,117444
7768,503,81,129436,117445
7771,503,80,129427,117445
7773,504,81,129427,117438
7776,505,81,129421,117442
7778,505,81,129421,117441
7781,505,81,129429,117437
7783,505,81,129426,117444
7785,505,80,129413,117436
7788,506,81,129417,117443
7790,507,80,129417,117435
7793,508,81,129412,117440
7795,511,80,129408,117436
7798,512,81,129403,117435
7800,514,81,129401,117435
7802,514,81,129404,117438
7805,514,80,129404,117430
7808,514,81,129391,117429
7811,514,81,129395,117433
7813,515,81,129382,117421
7816,515,80,129382,117424
7818,516,81,129378,117424
7821,516,81,129378,117421
7823,516,80,129385,117418
7825,517,80,129376,117416
7828,518,81,129372,117417
7830,519,81,129370,117421
7833,520,81,129370,117423
7835,521,81,129378,117417
7838,520,81,129364,117417
7840,519,81,129370,117421
7842,518,81,129369,117412
7845,517,81,129368,117419
7847,516,81,129368,117422
7851,515,81,129368,117413
7853,515,81,129373,117425
7856,514,81,129373,117420
7858,512,81,129368,117424
7861,511,81,129372,117424
7863,509,81,129378,117425
7865,508,81,129381,117421
7868,505,81,129381,117425
7870,503,81,129381,117425
7873,502,81,129388,117422
7875,503,81,129377,117423
7878,503,81,129377,117426
7880,504,81,129390,117421
7882,504,81,129393,117421
7885,504,81,129402,117435
7887,502,81,129402,117424
7890,501,81,129404,117425
7892,501,81,129406,117425
7896,502,81,129418,117432
7898,503,81,129424,117433
7901,503,81,129420,117441
7903,504,81,129427,117440
7905,505,81,129429,117440
7908,504,81,129431,117444
7910,504,81,129431,117445
7913,504,80,129430,117442
7915,504,81,129440,117442
7918,505,81,129456,117446
7920,505,81,129458,117448
7922,505,80,129458,117448
7925,505,80,129464,117448
7927,505,81,129462,117448
7930,504,81,129468,117459
7932,506,81,129468,117455
7936,506,80,129483,117462
7938,506,81,129491,117462
7941,505,80,129506,117470
7943,501,80,129506,117467
7945,496,81,129502,117465
7948,492,81,129513,117465
7950,487,80,129522,117471
7953,483,80,129528,117470
7955,483,80,129528,117474
7958,492,80,129538,117481
7960,501,80,129536,117481
7962,513,81,129552,117483
7965,541,80,129560,117488
7967,555,80,129561,117488
7970,594,80,129561,117494
7972,623,80,129569,117498
7975,644,81,129576,117498
7977,676,80,129576,117501
7981,702,80,129603,117504
7983,720,81,129599,117504
7985,734,81,129615,117505
7988,749,81,129615,117510
7990,748,81,129620,117510
7993,721,81,129620,117521
7995,688,81,129619,117516
7998,659,81,129637,117516
8000,604,81,129637,117520
8002,560,81,129649,117521
8005,530,81,129646,117521
8007,482,81,129646,117524
8010,456,81,129662,117530
8012,440,81,129664,117530
8015,434,80,129666,117530
8017,430,80,129686,117536
8020,430,80,129686,117539
8023,433,80,129687,117539
8025,438,80,129693,117542
8028,448,80,129693,117545
8030,453,80,129700,117553
8033,456,80,129705,117553
8035,459,80,129709,117544
8038,463,80,129709,117556
8040,466,80,129717,117553
8042,468,80,129720,117553
8045,470,80,129724,117561
8047,472,80,129736,117563
8050,475,80,129736,117563
8052,477,80,129743,117561
8055,478,80,129737,117561
8057,479,80,129747,117562
8060,480,80,129747,117569
8062,482,80,129756,117565
8065,484,80,129759,117565
8068,484,80,129755,117568
8070,485,80,129759,117570
8073,487,80,129764,117578
8075,490,80,129777,117581
8078,491,80,129781,117580
8080,491,80,129781,117586
8082,492,80,129781,117570
8085,495,83,129784,117570
8087,504,88,129775,117575
8090,508,93,129790,117576
8092,509,100,129792,117584
8095,508,103,129802,117579
8097,507,107,129792,117589
8100,507,110,129795,117584
8102,507,114,129813,117580
8104,507,118,129808,117585
8108,506,123,129819,117585
8110,507,129,129809,117587
8113,508,132,129809,117587
8115,509,135,129810,117582
8118,509,138,129815,117589
8120,511,145,129821,117587
8122,511,147,129830,117594
8125,513,150,129815,117592
8127,514,153,129825,117592
8130,513,156,129832,117602
8132,512,159,129836,117594
8135,513,162,129834,117603
8137,517,167,129840,117604
8140,519,169,129848,117600
8142,520,172,129843,117599
8144,521,174,129846,117603
8147,524,177,129844,117601
8150,525,181,129847,117596
8153,526,183,129849,117612
8155,528,185,129857,117604
8158,529,188,129859,117605
8160,532,192,129855,117605
8162,533,193,129860,117609
8165,534,195,129861,117607
8167,535,197,129867,117607
8170,536,199,129866,117613
8172,539,203,129873,117614
8175,539,204,129873,117616
8177,541,206,129862,117614
8180,542,208,129874,117614
8182,547,210,129867,117615
8184,548,212,129860,117616
8187,549,213,129868,117600
8189,551,215,129865,117611
8193,553,218,129848,117605
8195,554,219,129835,117598
8198,555,220,129841,117601
8200,558,223,129825,117585
8202,559,224,129807,117581
8205,561,226,129778,117567
8207,562,227,129764,117559
8210,562,228,129741,117547
8212,563,230,129706,117547
8215,564,231,129691,117520
8217,565,232,129660,117506
8220,565,234,129630,117497
8222,566,236,129597,117485
8224,566,237,129561,117472
8227,565,238,129537,117456
8229,564,239,129512,117441
8232,562,240,129461,117429
8235,560,242,129444,117415
8238,558,242,129405,117402
8240,556,243,129384,117390
8242,553,244,129344,117380
8245,548,245,129310,117377
8247,545,247,129293,117355
8250,542,247,129254,117339
8252,537,248,129221,117328
8255,532,249,129190,117316
8257,525,250,129159,117302
8260,521,251,129137,117293
8262,516,252,129112,117284
8264,511,253,129094,117277
8267,506,254,129061,117269
8269,500,254,129044,117253
8272,494,255,129013,117256
8274,488,256,128995,117246
8278,486,257,128978,117230
8280,481,257,128959,117227
8282,478,258,128953,117225
8285,475,259,128935,117217
8287,472,259,128916,117206
8290,468,260,128906,117207
8292,467,261,128908,117204
8295,467,261,128893,117199
8297,466,262,128881,117202
8300,466,262,128878,117195
8302,465,263,128881,117196
8304,464,263,128881,117193
8307,464,264,128874,117192
8309,464,265,128871,117194
8312,464,265,128871,117195
8314,463,266,128877,117193
8317,464,266,128862,117193
8320,465,267,128883,117203
8322,465,267,128875,117201
8325,466,268,128879,117201
8327,466,268,128879,117199
8330,467,268,128876,117199
8332,468,269,128894,117207
8335,468,269,128894,117207
8337,469,270,128894,117209
8340,470,270,128902,117209
8342,471,270,128921,117212
8344,472,271,128914,117212
8347,474,271,128924,117217
8349,474,272,128924,117220
8352,475,272,128934,117228
8354,476,272,128937,117227
8357,477,272,128937,117227
8359,477,273,128950,117226
8361,478,273,128967,117226
8365,480,273,128972,117245
8367,481,274,128972,117235
8370,480,274,128981,117241
8372,481,274,128991,117241
8375,482,275,129012,117241
8377,483,275,129013,117245
8380,483,275,129013,117260
8382,485,276,129020,117255
8384,485,276,129030,117255
8387,479,274,129052,117270
8389,472,266,129052,117264
8392,468,260,129055,117273
8394,469,257,129062,117273
8397,471,252,129073,117270
8399,476,245,129073,117268
8401,479,240,129080,117282
8404,481,237,129094,117282
8407,484,233,129112,117285
8410,485,229,129105,117289
8412,486,223,129105,117300
8415,487,219,129120,117298
8417,488,216,129133,117298
8420,489,213,129141,117303
8422,489,208,129141,117307
8424,489,204,129153,117308
8427,489,201,129156,117308
8429,489,198,129167,117310
8432,489,196,129176,117310
8434,489,191,129176,117317
8437,490,187,129189,117315
8439,491,185,129184,117315
8441,491,183,129199,117318
8444,491,179,129200,117317
8446,491,177,129209,117317
8450,491,173,129209,117319
8452,492,170,129208,117333
8455,492,169,129222,117333
8457,492,165,129222,117323
8460,492,163,129227,117325
8462,492,161,129228,117325
8464,492,159,129235,117334
8467,492,156,129235,117331
8469,490,153,129241,117333
8472,491,152,129242,117333
8474,491,150,129243,117334
8477,492,147,129243,117333
8479,493,146,129242,117333
8481,493,144,129240,117335
8484,493,142,129240,117328
8486,493,140,129245,117334
8489,493,139,129241,117334
8492,493,137,129234,117324
8495,494,136,129234,117331
8497,494,134,129240,117331
8500,494,132,129231,117331
8502,495,130,129238,117330
8504,495,129,129227,117331
8507,495,127,129227,117321
8509,495,125,129225,117326
8512,496,125,129220,117326
8514,496,123,129212,117321
8517,498,122,129212,117315
8519,500,121,129212,117311
8521,501,119,129202,117311
8524,502,118,129200,117312
8526,503,117,129193,117316
8529,503,116,129193,117308
8531,504,115,129199,117308
8535,504,114,129181,117306
8537,504,113,129180,117304
8540,504,112,129180,117302
8542,505,111,129184,117300
8544,506,109,129170,117300
8547,507,109,129168,117297
8549,508,108,129161,117293
8552,509,107,129167,117297
8554,512,106,129165,117295
8557,514,105,129157,117291
8559,515,104,129152,117292
8561,514,104,129152,117292
8564,515,103,129155,117292
8566,514,102,129152,117288
8569,514,101,129154,117286
8571,511,100,129150,117288
8574,510,100,129147,117285
8577,509,99,129128,117282
8580,509,99,129144,117285
8582,509,98,129148,117288
8584,507,97,129144,117277
8587,506,96,129136,117284
8589,503,96,129140,117284
8592,501,95,129146,117281
8594,501,95,129146,117280
8597,500,94,129143,117285
8599,499,93,129151,117280
8601,499,93,129150,117280
8604,500,93,129138,117278
8606,500,92,129153,117281
8609,500,92,129162,117285
8611,499,91,129153,117282
8614,499,91,129159,117286
8616,500,90,129162,117286
8620,500,90,129157,117290
8622,501,89,129161,117284
8624,501,89,129160,117286
8627,500,89,129180,117293
8629,500,88,129174,117294
8632,500,88,129170,117297
8634,501,87,129168,117290
8637,501,87,129184,117294
8639,501,86,129173,117302
8641,502,86,129175,117299
8644,503,86,129191,117288
8646,503,86,129188,117294
8649,504,85,129191,117294
8651,504,85,129202,117295
8654,504,85,129205,117299
8656,504,85,129202,117291
8659,504,84,129214,117304
8662,505,84,129208,117299
8664,504,84,129210,117307
8667,502,83,129213,117299
8669,498,83,129230,117301
8672,490,83,129223,117310
8674,487,83,129236,117304
8677,483,83,129235,117314
8679,484,82,129255,117317
8681,491,82,129256,117315
8684,502,82,129262,117317
8686,513,82,129266,117322
8689,543,82,129262,117323
8691,562,81,129273,117336
8694,580,81,129285,117328
8696,604,81,129297,117324
8699,631,81,129298,117327
8701,670,81,129303,117330
8704,692,81,129311,117339
8707,709,80,129308,117332
8709,726,80,129323,117338
8712,738,80,129325,117342
8714,734,80,129327,117342
8717,724,80,129336,117337
8719,686,80,129342,117354
8721,654,80,129357,117347
8724,624,80,129360,117353
8726,581,80,129363,117329
8729,520,79,129364,117356
8731,489,79,129375,117354
8734,465,79,129380,117366
8736,449,79,129396,117359
8739,437,79,129409,117372
8741,431,79,129407,117377
8743,432,79,129404,117374
8747,434,78,129423,117374
8749,440,78,129422,117375
8752,450,78,129430,117378
8754,455,78,129431,117377
8757,460,78,129439,117381
8759,463,78,129447,117383
8761,466,78,129451,117383
8764,470,78,129455,117389
8766,471,78,129456,117390
8769,472,77,129465,117395
8771,474,77,129463,117390
8774,475,77,129471,117391
8776,477,77,129483,117390
8779,478,77,129483,117393
8781,480,77,129484,117395
8783,482,77,129488,117395
8786,484,77,129490,117403
8788,485,77,129495,117397
8792,486,77,129495,117401
8794,487,77,129497,117397
8797,489,77,129498,117397
8799,492,77,129512,117407
8801,492,77,129503,117405
8804,492,77,129521,117408
8806,492,76,129521,117402
8809,492,76,129526,117411
8811,494,76,129529,117411
8814,494,76,129529,117413
8816,495,76,129542,117413
8819,497,76,129540,117413
8821,500,76,129542,117415
8823,500,76,129543,117411
8826,501,76,129551,117418
8828,501,76,129551,117411
8832,502,76,129556,117419
8834,503,76,129559,117419
8837,504,76,129567,117426
8839,506,76,129569,117420
8841,507,76,129569,117425
8844,507,76,129571,117430
8846,508,76,129580,117430
8849,509,76,129584,117435
8851,509,76,129584,117435
8854,510,76,129589,117437
8856,512,76,129591,117437
8859,512,76,129594,117439
8861,514,76,129601,117438
8863,516,76,129601,117438
8866,517,76,129606,117441
8868,518,76,129605,117441
8871,519,75,129614,117443
8873,520,76,129614,117438
8877,521,75,129608,117443
8879,523,75,129617,117443
8881,523,75,129630,117444
8884,526,75,129627,117445
8886,528,75,129627,117444
8889,530,75,129630,117444
8891,530,75,129627,117444
8894,529,75,129635,117453
8896,532,75,129635,117443
8899,535,75,129636,117444
8901,537,75,129641,117444
8903,538,75,129649,117451
8906,540,75,129644,117450
8908,541,75,129639,117450
8911,543,75,129639,117452
8913,545,75,129644,117456
8916,547,75,129635,117456
8919,549,75,129635,117440
8921,551,75,129628,117445
8924,552,75,129603,117445
8926,553,75,129594,117431
8929,553,75,129575,117415
8931,554,75,129564,117415
8934,557,75,129564,117394
8936,558,75,129537,117392
8939,558,75,129493,117392
8941,558,75,129493,117363
8943,558,75,129469,117353
8946,558,75,129411,117353
8948,557,75,129377,117337
8951,556,75,129377,117309
8953,556,75,129312,117309
8956,554,75,129312,117282
8958,552,75,129259,117268
8961,551,75,129211,117268
8964,547,75,129211,117238
8966,544,75,129184,117226
8969,542,75,129111,117226
8971,539,75,129063,117216
8974,531,75,129063,117181
8976,526,75,129039,117165
8979,523,75,128995,117165
8981,519,75,128932,117147
8983,515,75,128902,117146
8986,507,75,128902,117113
8988,501,75,128877,117106
8991,496,75,128812,117106
8993,491,75,128782,117093
8996,488,75,128782,117073
8998,481,75,128767,117060
9000,479,75,128741,117060
9004,476,75,128721,117060
9006,475,75,128700,117051
9009,472,75,128684,117044
9011,468,75,128677,117039
9014,467,75,128654,117036
9016,465,75,128644,117037
9019,464,75,128644,117028
9021,462,75,128636,117024
9023,461,75,128628,117024
9026,461,74,128616,117022
9028,460,75,128610,117013
9031,458,74,128600,117013
9033,458,74,128607,117011
9036,459,74,128607,117008
9038,460,74,128603,117014
9040,461,74,128603,117014
9043,462,74,128616,117014
9046,462,74,128600,117012
9049,463,74,128612,117015
9051,465,74,128623,117021
9054,466,74,128625,117023
9056,467,75,128622,117020
9059,469,75,128629,117021
9061,470,77,128632,117020
9063,476,81,128634,117022
9066,482,85,128642,117028
9068,485,93,128652,117035
9071,485,96,128659,117037
9073,485,100,128665,117034
9076,484,103,128685,117040
9078,482,111,128694,117043
9080,482,114,128700,117048
9083,482,117,128708,117050
9085,482,120,128712,117059
9089,483,124,128719,117055
9091,484,128,128730,117058
9094,480,127,128751,117069
9096,468,124,128751,117066
9099,468,123,128760,117070
9101,470,122,128769,117067
9103,474,121,128780,117083
9106,479,119,128798,117074
9108,481,118,128808,117083
9111,483,117,128812,117093
9113,486,116,128814,117081
9116,488,114,128819,117094
9118,490,113,128824,117089
9120,490,112,128823,117101
9123,491,111,128834,117094
9125,492,110,128847,117097
9128,493,109,128849,117092
9131,494,108,128858,117101
9134,494,107,128857,117106
9136,494,106,128871,117105
9139,495,106,128876,117107
9141,496,104,128870,117114
9143,496,104,128881,117108
9146,496,103,128887,117114
9148,496,102,128906,117115
9151,497,101,128900,117120
9153,497,101,128915,117126
9156,496,100,128919,117122
9158,497,99,128924,117128
9160,498,98,128931,117130
9163,498,98,128933,117127
9165,498,97,128941,117131
9168,499,97,128946,117139
9170,500,96,128952,117145
9174,500,95,128960,117135
9176,499,95,128971,117135
9179,499,94,128963,117134
9181,499,93,128958,117146
9183,499,93,128978,117143
9186,500,93,128980,117142
9188,500,92,128996,117146
9191,500,91,128986,117155
9193,501,93,128991,117153
9196,504,93,128995,117142
9198,508,96,128997,117148
9200,511,100,129000,117139
9203,513,103,128992,117154
9205,514,107,128992,117142
9208,507,108,128997,117155
9210,497,107,129002,117149
9213,493,106,128997,117147
9216,493,106,129000,117146
9219,494,105,128995,117150
9221,497,104,128996,117150
9223,499,103,128989,117144
9226,502,102,128992,117146
9228,505,101,128989,117142
9231,508,101,128983,117138
9233,510,100,128980,117133
9236,511,99,128980,117137
9238,512,98,128977,117135
9240,512,98,128969,117135
9243,512,97,128969,117135
9245,513,96,128960,117121
9248,513,96,128957,117124
9250,513,96,128947,117124
9253,514,95,128957,117119
9255,516,94,128955,117125
9259,517,94,128955,117113
9261,518,93,128935,117114
9263,519,93,128934,117114
9266,519,92,128932,117111
9268,518,92,128928,117102
9271,518,91,128928,117106
9273,516,91,128925,117105
9276,516,91,128915,117105
9278,515,90,128909,117097
9280,514,90,128898,117089
9283,510,89,128896,117093
9285,509,89,128896,117090
9288,509,88,128882,117091
9290,508,88,128883,117082
9293,506,88,128883,117078
9295,504,87,128878,117082
9298,502,87,128876,117082
9300,502,87,128864,117075
9303,501,86,128864,117073
9306,501,86,128860,117075
9308,501,86,128856,117075
9311,501,85,128862,117080
9313,500,85,128861,117074
9316,499,85,128856,117080
9318,499,84,128856,117078
9320,500,84,128854,117071
9323,501,84,128859,117076
9325,501,84,128860,117076
9328,501,84,128860,117067
9330,501,83,128860,117074
9333,501,83,128858,117078
9335,501,83,128864,117078
9338,501,83,128866,117075
9340,502,82,128862,117075
9342,502,82,128862,117070
9346,502,82,128864,117074
9348,502,82,128860,117074
9351,503,82,128869,117071
9353,503,81,128869,117074
9356,503,81,128867,117077
9358,503,81,128877,117077
9360,503,81,128883,117087
9363,504,80,128883,117080
9365,503,80,128891,117086
9368,502,80,128890,117086
9370,501,80,128898,117087
9373,498,80,128899,117086
9375,489,80,128899,117092
9378,483,80,128907,117089
9380,481,80,128909,117089
9382,480,79,128914,117089
9385,489,79,128921,117092
9388,496,79,128927,117092
9391,517,79,128927,117095
9393,535,79,128923,117104
9396,551,79,128944,117104
9398,581,79,128944,117104
9400,607,79,128954,117103
9403,628,79,128950,117103
9405,646,79,128965,117108
9408,684,79,128970,117112
9410,697,79,128977,117112
9413,723,78,128977,117111
9415,731,79,128983,117118
9418,729,78,128996,117118
9420,709,78,128996,117122
9422,681,78,129005,117129
9425,655,78,129014,117129
9427,627,78,129019,117132
9431,564,79,129019,117131
9433,531,81,129023,117131
9436,508,87,129033,117131
9438,483,87,129056,117141
9440,442,86,129056,117140
9443,433,86,129061,117140
9445,427,86,129067,117148
9448,427,85,129067,117145
9450,432,85,129077,117153
9453,436,85,129088,117153
9455,441,85,129095,117154
9458,451,85,129095,117161
9460,458,84,129104,117161
9462,461,84,129105,117161
9465,464,83,129114,117164
9467,466,83,129120,117170
9470,469,83,129120,117169
9473,471,82,129138,117174
9476,473,83,129140,117174
9478,475,82,129146,117182
9480,476,82,129146,117183
9483,478,82,129158,117184
9485,479,82,129157,117184
9488,480,81,129166,117188
9490,482,81,129172,117187
9493,483,81,129177,117192
9495,485,81,129183,117197
9498,486,81,129203,117197
9500,486,80,129202,117204
9502,488,80,129202,117204
9505,488,80,129216,117204
9507,490,80,129212,117206
9510,491,80,129233,117209
9512,493,80,129231,117205
9516,494,80,129236,117221
9518,496,79,129245,117213
9520,496,79,129256,117215
9523,497,79,129250,117223
9525,498,79,129254,117216
9528,499,79,129270,117224
9530,501,79,129266,117227
9533,502,79,129272,117229
9535,503,79,129279,117227
9538,504,78,129285,117227
9540,505,78,129297,117233
9542,506,78,129296,117233
9545,506,78,129295,117243
9547,507,78,129302,117235
9550,508,78,129312,117241
9552,510,78,129313,117238
9555,510,78,129311,117241
9558,511,77,129335,117248
9560,512,77,129336,117247
9563,515,77,129341,117251
9565,515,77,129354,117253
9568,515,77,129342,117247
9570,516,77,129353,117252
9573,517,77,129359,117253
9575,519,77,129367,117264
9578,520,77,129361,117264
9580,521,77,129363,117262
9582,521,77,129370,117262
9585,523,77,129378,117263
9587,524,77,129379,117270
9590,525,77,129393,117266
9592,526,77,129401,117272
9595,528,77,129411,117282
9597,530,76,129407,117276
9600,532,76,129413,117274
9603,535,76,129416,117278
9605,536,76,129418,117281
9608,537,76,129417,117284
9610,539,76,129424,117286
9613,540,76,129432,117287
9615,543,76,129431,117283
9618,544,76,129406,117285
9620,546,76,129412,117285
9622,548,76,129415,117271
9625,550,76,129393,117273
9627,552,76,129381,117265
9630,553,76,129362,117253
9632,556,76,129342,117258
9635,557,76,129322,117233
9637,557,76,129301,117226
9639,557,76,129269,117211
9643,558,76,129220,117194
9645,558,76,129199,117178
9648,558,76,129165,117163
9650,558,76,129124,117156
9653,558,76,129090,117139
9655,558,76,129059,117121
9658,556,76,129021,117109
9660,554,76,128984,117093
9662,552,76,128955,117077
9665,551,76,128916,117067
9667,548,76,128879,117052
9670,547,76,128837,117035
9672,543,76,128797,117020
9675,538,76,128762,117004
9677,534,76,128739,116992
9679,529,76,128695,116971
9682,521,76,128657,116952
9684,517,76,128621,116932
9688,514,76,128584,116926
9690,509,76,128554,116915
9693,505,76,128521,116905
9695,498,76,128490,116891
9698,494,76,128467,116883
9700,490,76,128441,116869
9702,486,76,128411,116859
9705,480,76,128390,116852
9707,476,76,128375,116836
9710,474,76,128375,116828
9712,472,76,128334,116829
9715,470,76,128313,116829
9717,466,76,128302,116815
9719,464,76,128286,116805
9722,463,76,128270,116804
9724,463,76,128274,116798
9728,462,76,128265,116800
9730,462,76,128255,116792
9733,461,76,128246,116792
9735,461,76,128243,116789
9738,460,76,128243,116787
9740,460,76,128238,116793
9742,462,76,128239,116791
9745,462,76,128253,116789
9747,463,76,128239,116784
9750,464,76,128243,116788
9752,466,76,128248,116794
9755,466,76,128248,116789
9757,466,76,128247,116789
9759,467,76,128247,116789
9762,469,76,128273,116802
9764,471,76,128266,116799
9767,470,77,128262,116799
9769,470,76,128262,116802
9773,471,76,128275,116809
9775,473,77,128284,116811
9778,473,76,128284,116810
9780,474,76,128294,116814
9782,475,77,128300,116814
9785,476,77,128324,116823
9787,477,77,128324,116822
9790,478,77,128320,116830
9792,479,77,128330,116830
9795,481,77,128342,116825
9797,483,77,128344,116820
9799,483,77,128344,116838
9802,483,77,128357,116836
9804,484,77,128363,116836
9807,485,77,128367,116848
9809,487,77,128367,116843
9812,487,77,128382,116843
9815,487,77,128395,116843
9818,488,77,128406,116850
9820,488,77,128413,116850
9822,488,77,128413,116856
9825,489,77,128425,116857
9827,490,77,128422,116857
9830,491,77,128433,116862
9832,490,77,128433,116866
9835,489,77,128452,116870
9837,490,77,128460,116870
9839,491,77,128473,116878
9842,492,77,128474,116879
9844,492,77,128472,116879
9847,493,77,128493,116875
9849,493,77,128493,116879
9852,494,77,128507,116879
9854,494,77,128507,116891
9858,495,77,128520,116898
9860,496,77,128533,116898
9862,496,77,128554,116899
9865,496,78,128555,116904
9867,496,78,128560,116904
9870,497,78,128560,116906
9872,496,78,128572,116911
9875,496,78,128581,116911
9877,497,78,128581,116921
9879,498,78,128606,116922
9882,498,78,128610,116922
9884,498,78,128620,116928
9887,498,78,128620,116934
9889,498,78,128636,116934
9892,498,78,128636,116929
9894,498,78,128641,116938
9897,498,78,128638,116938
9900,498,78,128638,116939
9902,499,78,128659,116933
9905,500,78,128648,116943
9907,501,78,128648,116939
9910,502,78,128657,116941
9912,502,78,128659,116939
9915,503,78,128658,116939
9917,504,78,128666,116948
9919,506,78,128666,116942
9922,507,78,128651,116942
9924,508,78,128660,116948
9927,510,78,128660,116945
9929,510,78,128661,116944
9932,510,78,128660,116944
9934,510,78,128654,116946
9937,510,78,128654,116944
9939,511,78,128656,116938
9942,512,78,128648,116938
9945,513,78,128649,116939
9947,513,78,128653,116941
9950,514,78,128653,116941
9952,515,78,128652,116946
9955,516,78,128643,116937
9957,517,78,128644,116940
9959,518,79,128644,116939
9962,518,78,128644,116936
9964,517,78,128636,116936
9967,516,78,128636,116937
9969,515,78,128634,116932
9972,514,78,128632,116927
9974,512,78,128628,116929
9977,511,78,128628,116926
9979,510,78,128620,116927
9981,509,79,128620,116924
9985,508,79,128615,116924
9987,506,79,128616,116913
9990,504,78,128622,116920
9992,502,78,128610,116919
9995,501,78,128607,116918
9997,501,79,128613,116922
9999,501,78,128608,116919
10002,501,78,128601,116920
10004,501,79,128592,116911
10007,500,78,128606,116919
10009,500,78,128591,116916
10012,499,78,128597,116920
10014,499,79,128602,116918
10017,499,78,128608,116916
10019,501,79,128607,116913
10021,501,79,128603,116920
10024,502,78,128603,116920
10027,502,78,128598,116914
10030,503,78,128602,116918
10032,501,78,128599,116927
10035,502,79,128585,116918
10037,502,78,128610,116921
10039,503,78,128607,116921
10042,502,79,128603,116911
10044,502,78,128604,116910
10047,503,79,128603,116922
10049,503,78,128606,116921
10052,503,78,128611,116926
10054,503,78,128598,116925
10057,503,78,128611,116921
10059,504,78,128616,116927
10061,503,78,128619,116928
10064,503,78,128631,116926
10066,501,78,128626,116928
10070,498,78,128619,116938
10072,493,78,128625,116932
10075,488,78,128637,116932
10077,483,79,128626,116934
10079,484,78,128622,116937
10082,490,78,128647,116935
10084,499,78,128647,116939
10087,514,78,128652,116939
10089,542,78,128655,116940
10092,558,78,128660,116948
10094,579,78,128661,116937
10097,602,78,128669,116958
10099,646,78,128672,116953
10101,664,79,128672,116952
10104,683,79,128686,116948
10106,704,79,128689,116948
10109,726,79,128692,116963
10112,733,79,128699,116965
10115,733,79,128705,116963
10117,708,79,128700,116964
10119,681,79,128710,116965
10122,649,79,128707,116966
10124,619,79,128714,116974
10127,553,78,128720,116976
10129,520,78,128725,116980
10132,495,79,128731,116977
10134,471,78,128740,116976
10137,450,78,128744,116984
10139,435,79,128749,116985
10141,433,78,128758,116985
10144,433,78,128760,116989
10146,437,78,128765,116992
10149,443,78,128767,116997
10151,452,78,128771,116996
10155,456,78,128780,117000
10157,462,78,128777,117001
10159,464,78,128785,116997
10162,466,78,128792,117001
10164,469,78,128787,116986
10167,472,78,128799,117014
10169,474,78,128805,117010
10172,476,78,128805,117015
10174,478,78,128810,117013
10177,479,78,128811,117013
10179,482,78,128820,117025
10181,483,78,128822,117021
10184,483,78,128830,117024
10186,484,78,128841,117024
10189,486,78,128832,117026
10191,487,78,128842,117024
10194,487,77,128842,117030
10196,488,78,128853,117034
10199,489,78,128848,117034
10202,491,78,128871,117044
10204,492,78,128873,117030
10207,493,77,128876,117045
10209,495,78,128870,117034
10212,496,78,128867,117042
10214,498,77,128877,117037
10217,499,77,128877,117045
10219,500,77,128888,117047
10221,501,77,128894,117047
10224,502,78,128910,117059
10226,503,77,128905,117055
10229,503,77,128905,117055
10231,504,77,128919,117057
10234,505,77,128921,117057
10236,507,77,128932,117068
10238,507,77,128932,117061
10242,509,77,128935,117071
10244,510,77,128936,117071
10247,510,77,128950,117070
10249,511,77,128953,117074
10252,512,77,128953,117074
10254,514,77,128959,117083
10257,515,77,128965,117083
10259,514,77,128970,117094
10261,515,77,128970,117090
10264,516,77,128979,117095
10266,518,77,128990,117095
10269,519,77,128993,117090
10271,522,77,128991,117093
10274,524,77,128996,117099
10276,526,77,128996,117101
10278,527,77,129001,117111
10281,528,77,129019,117110
10284,529,77,129014,117110
10287,531,77,129034,117110
10289,532,77,129034,117112
10292,533,77,129036,117111
10294,535,77,129028,117111
10297,535,77,129038,117121
10299,537,77,129038,117117
10301,539,77,129045,117124
10304,541,77,129050,117122
10306,542,77,129050,117123
10309,544,77,129050,117125
10311,545,77,129052,117125
10314,546,77,129065,117125
10316,550,77,129065,117124
10318,552,77,129051,117119
10321,554,77,129037,117112
10323,555,77,129024,117112
10327,556,77,129024,117097
10329,557,77,128990,117097
10332,557,77,128972,117097
10334,558,77,128972,117071
10337,558,77,128954,117058
10339,558,77,128897,117058
10341,557,77,128871,117055
10344,559,77,128871,117026
10346,558,77,128847,117016
10349,557,77,128779,117016
10351,557,77,128752,116999
10354,555,77,128752,116974
10356,554,77,128683,116974
10358,553,77,128656,116966
10361,549,77,128656,116940
10363,545,77,128623,116928
10366,542,77,128553,116928
10369,539,77,128526,116906
10372,535,77,128526,116876
10374,531,77,128484,116867
10377,527,77,128415,116867
10379,521,77,128415,116837
10381,515,77,128379,116822
10384,510,77,128316,116810
10386,505,77,128316,116796
10389,500,77,128273,116786
10391,495,77,128247,116780
10394,492,77,128224,116780
10396,489,77,128175,116763
10398,483,77,128175,116741
10401,481,77,128114,116741
10403,478,77,128097,116743
10406,475,77,128097,116721
10408,470,77,128074,116718
10412,469,77,128067,116718
10414,468,77,128039,116712
10417,467,77,128039,116700
10419,466,77,128015,116700
10421,465,77,128015,116693
10424,464,77,128006,116696
10426,464,77,127994,116692
10429,464,77,127987,116692
10431,463,77,127977,116688
10434,464,77,127970,116688
10436,464,77,127969,116688
10438,464,77,127963,116683
10441,465,77,127965,116683
10443,467,77,127962,116683
10446,467,77,127967,116683
10448,468,77,127967,116682
10451,469,77,127965,116685
10454,470,77,127962,116685
10457,471,77,127963,116684
10459,472,77,127962,116682
10461,472,77,127960,116688
10464,473,77,127967,116686
10466,475,77,127962,116690
10469,475,78,127972,116693
10471,475,77,127983,116698
10474,475,77,127987,116699
10476,477,77,127991,116698
10478,478,77,127996,116694
10481,478,77,127990,116697
10483,479,77,128001,116699
10486,480,77,128011,116694
10488,484,77,128003,116706
10491,484,77,128013,116707
10493,485,77,128018,116697
10497,486,77,128017,116711
10499,486,77,128024,116712
10501,486,77,128031,116717
10504,487,77,128033,116713
10506,487,77,128053,116718
10509,487,77,128042,116724
10511,488,78,128062,116723
10514,489,77,128056,116729
10516,490,77,128069,116725
10518,491,77,128067,116729
10521,492,77,128073,116730
10523,491,77,128074,116729
10526,491,77,128073,116736
10528,491,77,128075,116740
10531,492,77,128078,116741
10533,493,77,128087,116739
10536,493,77,128085,116751
10539,494,78,128095,116741
10541,494,77,128103,116734
10544,496,77,128117,116745
10546,495,77,128108,116751
10549,495,77,128120,116761
10551,494,77,128140,116757
10554,494,77,128143,116766
10556,496,77,128148,116762
10558,496,77,128144,116769
10561,497,77,128161,116769
10563,498,77,128168,116778
10566,498,77,128176,116770
10568,498,77,128179,116777
10571,498,77,128187,116780
10573,498,77,128187,116783
10576,498,77,128196,116780
10578,499,77,128185,116792
10580,499,77,128203,116796
10584,500,77,128208,116785
10586,500,77,128217,116784
10589,500,77,128212,116793
10591,500,77,128214,116792
10594,501,77,128213,116793
10596,502,77,128213,116803
10598,503,77,128227,116797
10601,504,77,128220,116794
10603,504,77,128220,116804
10606,507,77,128223,116802
10608,507,77,128217,116804
10611,508,77,128216,116801
10613,508,77,128220,116804
10616,509,77,128226,116780
10618,510,77,128223,116805
10620,510,77,128224,116806
10624,511,77,128222,116804
10626,512,77,128225,116803
10629,512,77,128217,116803
10631,513,77,128222,116808
10634,514,77,128221,116799
10636,515,77,128216,116798
10638,516,77,128218,116800
10641,516,77,128214,116803
10643,518,77,128202,116795
10646,519,77,128207,116799
10648,518,77,128203,116795
10651,517,77,128197,116799
10653,516,77,128194,116792
10656,516,77,128196,116796
10658,514,77,128197,116788
10660,514,77,128184,116794
10663,513,77,128178,116783
10665,512,77,128172,116782
10669,510,77,128167,116782
10671,509,77,128166,116773
10674,507,77,128166,116780
10676,505,77,128162,116778
10678,505,77,128157,116778
10681,503,77,128164,116782
10683,503,77,128152,116775
10686,503,77,128159,116775
10688,502,77,128150,116774
10691,502,77,128143,116773
10693,502,77,128145,116768
10696,502,77,128145,116766
10698,502,77,128138,116768
10700,502,77,128138,116768
10703,502,77,128142,116777
10705,502,77,128137,116765
10708,502,77,128137,116767
10711,502,76,128135,116773
10714,502,77,128140,116773
10716,503,77,128137,116765
10718,503,77,128137,116773
10721,503,77,128131,116772
10723,503,77,128138,116772
10726,503,77,128140,116777
10728,502,77,128135,116777
10731,502,77,128135,116770
10733,503,76,128136,116773
10736,504,77,128143,116773
10738,504,76,128141,116780
10740,505,76,128141,116783
10743,504,77,128152,116780
10745,505,77,128144,116780
10748,504,77,128163,116788
10750,502,76,128158,116790
10754,500,77,128151,116788
10756,492,77,128151,116791
10758,487,76,128151,116790
10761,485,77,128162,116792
10763,486,77,128172,116792
10766,498,77,128178,116793
10768,507,77,128178,116806
10771,523,77,128185,116801
10773,537,77,128178,116801
10776,555,77,128190,116806
10778,592,77,128190,116803
10780,618,77,128190,116807
10783,647,77,128192,116813
10785,668,77,128192,116814
10788,692,77,128200,116817
10790,708,77,128214,116817
10793,721,77,128218,116823
10796,732,77,128218,116817
