TimeStamp,ECG Data,GSR Data,PPG_Red Data,PPG_IR Data
7356,530,7,128670,117488
7359,532,7,128677,117484
6,513,4,0,0
8,514,4,57546,57544
11,516,4,73896,73910
13,518,4,90308,90316
15,521,4,106706,106714
18,523,4,123072,117384
20,528,4,127869,117370
23,530,5,127875,117369
25,533,5,127884,117369
28,534,5,127897,117369
30,539,5,127893,117382
33,541,5,127906,117385
35,543,5,127911,117385
37,545,5,127905,117387
40,546,5,127911,117381
43,551,5,127913,117387
46,553,5,127917,117393
48,555,5,127926,117386
51,557,5,127925,117384
53,562,5,127942,117392
55,563,5,127957,117400
58,565,6,127947,117404
60,567,6,127961,117403
63,568,6,127968,117414
65,570,6,127966,117411
68,572,6,127972,117413
70,575,6,127975,117419
73,576,6,127975,117415
75,577,6,127989,117417
77,579,6,127990,117419
80,582,6,127999,117422
82,584,6,128007,117424
86,585,6,128009,117433
88,587,6,128005,117424
91,589,6,128016,117425
93,591,6,128003,117426
95,592,6,127998,117431
98,593,6,128001,117421
100,594,6,128000,117422
103,595,6,127998,117419
105,598,7,127992,117417
108,599,6,127974,117411
110,599,7,127949,117409
113,599,7,127948,117394
115,600,6,127916,117391
117,600,6,127892,117383
120,600,7,127876,117372
122,599,7,127857,117362
125,599,7,127816,117350
128,598,7,127794,117337
131,597,7,127755,117325
133,595,7,127718,117316
135,593,7,127688,117299
138,590,7,127656,117283
140,587,7,127616,117280
143,581,7,127574,117265
145,578,7,127540,117248
148,575,7,127499,117227
150,571,7,127469,117214
153,566,7,127419,117199
155,558,7,127379,117186
157,553,7,127348,117169
160,549,7,127307,117156
162,544,7,127259,117138
165,538,7,127220,117120
167,530,7,127176,117108
171,527,7,127139,117089
173,520,7,127097,117080
175,517,7,127065,117059
178,513,7,127029,117047
180,510,7,126986,117029
183,505,7,126943,117016
185,502,7,126916,117005
188,499,7,126882,116994
190,497,7,126853,116983
193,496,7,126814,116959
195,493,7,126791,116952
197,492,7,126765,116936
200,491,7,126745,116923
202,490,7,126714,116926
205,489,7,126684,116916
207,488,7,126666,116907
210,488,7,126666,116902
212,488,7,126641,116899
215,488,7,126616,116899
218,488,7,126607,116882
220,489,7,126585,116869
223,489,7,126576,116870
225,489,7,126566,116865
228,490,7,126556,116859
230,490,7,126556,116862
233,491,7,126556,116854
235,492,7,126534,116852
237,493,7,126533,116852
240,494,7,126534,116853
242,495,7,126531,116846
245,495,7,126531,116853
247,495,7,126525,116847
250,496,7,126526,116847
252,497,7,126535,116851
254,498,7,126535,116845
258,499,7,126538,116852
260,499,7,126546,116852
263,500,7,126548,116863
265,501,7,126561,116869
268,501,7,126561,116867
270,502,7,126567,116868
273,502,7,126576,116868
275,502,7,126588,116873
277,502,7,126588,116876
280,502,7,126594,116883
282,503,7,126605,116883
285,503,7,126617,116892
287,503,7,126614,116886
290,504,7,126621,116893
292,504,7,126621,116896
294,504,7,126632,116899
297,505,7,126642,116904
300,505,7,126655,116904
303,505,7,126662,116907
305,505,7,126662,116915
308,505,7,126674,116918
310,506,7,126685,116918
313,506,7,126707,116925
315,507,7,126702,116927
317,507,7,126702,116936
320,507,7,126730,116940
322,507,7,126730,116946
325,507,7,126741,116944
327,507,7,126751,116944
330,507,7,126763,116955
332,508,7,126763,116966
334,508,7,126778,116965
337,508,7,126803,116970
339,508,7,126808,116970
343,507,7,126808,116978
345,507,7,126814,116978
348,507,7,126832,116990
350,508,7,126832,116992
353,508,7,126838,116993
355,508,7,126857,116993
357,508,7,126871,116994
360,507,7,126881,117004
362,507,7,126883,117004
365,506,7,126883,117014
367,507,7,126888,117013
370,507,7,126897,117013
372,507,7,126897,117014
374,507,7,126903,117019
377,507,7,126904,117019
379,506,7,126882,117013
382,506,7,126882,117013
385,506,7,126918,117021
388,506,8,126914,117021
390,506,7,126923,117018
393,507,7,126923,117019
395,507,7,126916,117019
397,507,7,126916,117031
400,507,7,126916,117025
402,506,7,126917,117020
405,506,7,126910,117020
407,506,7,126903,117024
410,506,7,126903,117018
412,506,7,126892,117014
414,506,7,126898,117014
417,505,7,126892,117020
419,505,7,126886,117028
422,505,7,126886,117014
424,505,7,126884,117016
428,506,7,126863,117016
430,506,7,126865,117013
433,507,7,126865,117009
435,508,7,126859,117008
437,509,7,126850,117008
440,509,7,126841,117003
442,509,7,126835,116998
445,511,7,126835,117001
447,512,7,126834,117001
450,512,7,126809,116997
452,513,7,126818,117000
454,513,7,126818,116997
457,512,7,126814,116996
459,512,7,126803,116996
462,512,7,126808,116992
464,512,7,126802,116990
467,513,7,126795,116990
470,514,7,126792,116990
473,515,7,126794,116991
475,515,7,126785,116996
477,516,8,126785,116993
480,516,7,126792,116993
482,515,7,126787,116990
485,513,7,126786,116988
487,512,7,126785,116989
490,511,7,126784,116989
492,509,7,126799,116990
494,508,7,126786,116992
497,508,7,126796,117006
499,507,7,126792,116994
502,506,7,126797,116995
504,503,7,126799,117002
507,502,7,126804,117009
509,501,7,126813,116997
513,499,7,126822,117008
515,497,7,126826,117006
517,497,7,126833,117016
520,496,7,126834,117023
522,496,7,126838,117017
525,495,7,126841,117025
527,495,7,126850,117030
530,495,7,126850,117035
532,495,7,126853,117030
534,495,7,126875,117036
537,495,7,126875,117036
539,495,7,126882,117043
542,495,7,126886,117038
544,495,7,126894,117047
547,495,7,126907,117059
549,496,7,126914,117053
552,496,7,126923,117066
555,496,7,126932,117064
557,496,7,126944,117069
560,495,7,126957,117075
562,495,7,126968,117076
565,495,7,126976,117076
567,496,7,126986,117092
570,496,7,126987,117093
572,496,7,126993,117095
574,497,7,127012,117099
577,497,7,127003,117105
579,497,7,127021,117108
582,497,7,127036,117112
584,494,7,127054,117115
587,490,7,127058,117112
589,481,7,127066,117124
592,476,7,127070,117125
594,473,7,127075,117124
596,472,7,127095,117125
600,478,7,127096,117135
602,490,7,127113,117140
605,506,7,127114,117148
607,534,7,127125,117155
610,551,7,127136,117152
612,572,7,127139,117160
614,595,7,127156,117159
617,639,7,127167,117170
619,657,7,127169,117179
622,674,7,127179,117177
624,699,7,127187,117183
627,720,7,127194,117190
629,739,7,127207,117188
632,738,8,127214,117189
634,724,7,127226,117204
636,699,7,127236,117200
640,658,8,127235,117207
642,593,8,127244,117212
645,557,7,127258,117214
647,509,7,127269,117207
650,461,8,127276,117217
652,439,7,127283,117224
654,418,7,127281,117221
657,405,7,127290,117232
659,404,7,127299,117225
662,406,7,127308,117234
664,410,7,127315,117243
667,415,7,127326,117239
669,426,7,127330,117246
672,431,7,127333,117239
674,435,7,127345,117242
676,440,7,127343,117253
679,447,7,127360,117254
681,450,7,127368,117261
685,452,7,127368,117265
687,455,7,127383,117271
690,457,7,127387,117271
692,461,7,127402,117281
694,463,7,127405,117272
697,465,7,127405,117276
699,467,7,127422,117283
702,468,7,127425,117288
704,469,7,127433,117281
707,471,7,127438,117287
709,473,7,127438,117291
712,473,7,127438,117291
714,475,7,127445,117296
716,476,7,127451,117303
719,477,7,127473,117304
721,479,7,127466,117304
724,480,7,127465,117305
727,482,7,127476,117310
730,483,7,127476,117315
732,483,7,127484,117313
734,484,7,127491,117313
737,486,7,127497,117321
739,486,7,127497,117319
742,487,7,127503,117326
744,488,7,127512,117326
747,489,7,127523,117328
749,490,7,127526,117326
752,490,7,127528,117338
754,492,7,127541,117332
756,492,7,127545,117332
759,495,7,127544,117343
761,495,7,127544,117345
764,496,7,127561,117355
766,497,7,127569,117355
770,497,7,127585,117351
772,499,7,127580,117355
774,500,7,127580,117369
777,500,7,127606,117371
779,501,7,127615,117371
782,502,7,127616,117368
784,504,7,127616,117372
787,505,7,127621,117382
789,507,7,127630,117382
792,508,7,127646,117381
794,509,7,127650,117384
796,509,7,127650,117391
799,511,7,127660,117393
801,512,7,127661,117393
804,513,7,127668,117403
806,515,7,127668,117406
809,516,7,127686,117407
812,518,7,127692,117407
814,519,7,127704,117414
817,521,7,127698,117412
819,521,7,127708,117412
822,524,7,127708,117419
824,525,7,127707,117421
827,527,7,127702,117421
829,529,7,127702,117415
832,531,7,127706,117408
834,532,7,127679,117408
836,533,7,127673,117409
839,536,7,127659,117391
841,536,7,127632,117391
844,538,7,127632,117370
846,539,7,127621,117369
849,540,7,127571,117369
851,541,7,127571,117350
854,542,7,127546,117333
857,543,7,127481,117333
859,543,7,127452,117328
862,543,7,127452,117296
864,543,7,127380,117296
867,542,7,127380,117263
869,542,7,127336,117248
872,541,8,127250,117248
874,540,7,127250,117218
876,538,7,127220,117203
879,536,7,127122,117203
881,532,7,127122,117165
884,529,8,127079,117150
886,526,7,127038,117137
889,523,7,126989,117137
891,520,7,126908,117113
893,514,7,126908,117075
897,511,7,126801,117075
899,507,8,126801,117040
902,498,8,126762,117027
904,493,7,126723,116998
907,490,8,126673,116998
909,486,7,126596,116991
912,479,7,126596,116961
914,477,8,126521,116961
916,473,8,126521,116930
919,466,7,126486,116918
921,463,7,126451,116901
924,460,7,126424,116894
926,458,7,126389,116887
929,456,7,126355,116887
931,455,7,126322,116874
933,454,7,126312,116862
936,452,7,126290,116850
939,450,7,126267,116851
942,449,7,126235,116840
944,449,7,126235,116829
947,449,7,126220,116829
949,449,7,126212,116821
952,450,7,126200,116819
954,450,7,126179,116813
956,451,7,126168,116813
959,451,7,126169,116802
961,453,7,126156,116802
964,454,7,126155,116802
966,455,7,126155,116799
969,456,7,126139,116797
971,457,7,126132,116793
973,458,7,126136,116796
976,461,7,126132,116793
978,462,7,126140,116790
982,463,7,126122,116790
984,464,7,126135,116789
987,464,7,126135,116792
989,467,7,126142,116793
992,467,7,126127,116794
994,468,7,126136,116791
996,469,7,126134,116796
999,470,7,126137,116800
1001,472,7,126135,116795
1004,473,7,126150,116790
1006,473,7,126148,116797
1009,474,7,126158,116800
1011,476,7,126160,116801
1013,477,7,126171,116805
1016,478,7,126169,116811
1018,478,7,126178,116807
1021,479,7,126186,116800
1024,479,7,126177,116810
1027,480,7,126168,116817
1029,481,7,126177,116813
1032,482,7,126171,116813
1034,482,7,126189,116813
1036,483,7,126195,116815
1039,484,7,126202,116824
1041,484,7,126208,116827
1044,485,7,126207,116823
1046,486,7,126208,116821
1049,487,7,126207,116828
1051,488,7,126207,116818
1053,488,7,126216,116813
1056,488,7,126206,116826
1058,488,7,126210,116825
1061,489,7,126225,116831
1063,489,7,126229,116834
1067,490,7,126240,116838
1069,490,7,126243,116839
1072,491,7,126245,116837
1074,491,7,126248,116840
1076,491,7,126249,116849
1079,491,7,126245,116841
1081,491,7,126255,116849
1084,491,7,126267,116842
1086,491,7,126266,116850
1089,491,7,126270,116852
1091,492,7,126269,116856
1093,492,7,126277,116860
1096,492,7,126283,116867
1098,492,7,126285,116866
1101,492,7,126289,116864
1103,493,7,126289,116874
1106,493,7,126289,116875
1108,494,7,126298,116881
1112,494,7,126304,116871
1114,494,7,126306,116875
1116,493,7,126316,116877
1119,493,7,126310,116879
1121,493,7,126312,116883
1124,493,7,126313,116880
1126,493,7,126305,116875
1129,493,7,126318,116880
1131,493,7,126319,116878
1133,494,7,126307,116876
1136,494,7,126306,116883
1138,494,7,126309,116868
1141,494,7,126307,116878
1143,493,7,126305,116873
1146,493,7,126298,116874
1148,493,7,126311,116875
1152,493,7,126302,116873
1154,493,7,126297,116877
1156,493,7,126301,116869
1159,492,7,126291,116881
1161,493,7,126290,116869
1164,493,7,126290,116870
1166,493,7,126279,116873
1169,494,7,126269,116873
1171,494,7,126269,116868
1173,494,7,126275,116863
1176,494,7,126256,116867
1178,495,7,126256,116862
1181,495,7,126261,116861
1183,496,7,126245,116861
1186,496,7,126245,116855
1188,497,7,126244,116860
1191,499,7,126243,116860
1193,501,7,126247,116862
1196,501,7,126247,116862
1199,503,7,126247,116866
1201,503,7,126247,116867
1204,503,7,126233,116859
1206,503,7,126240,116861
1209,503,7,126240,116865
1211,503,7,126242,116858
1213,503,7,126234,116858
1216,504,7,126246,116862
1218,504,7,126246,116871
1221,504,7,126245,116872
1223,505,7,126245,116872
1226,505,7,126250,116867
1228,506,7,126251,116867
1231,507,7,126248,116878
1233,507,7,126257,116879
1235,507,7,126263,116879
1239,504,7,126268,116878
1241,502,7,126268,116883
1244,501,7,126271,116887
1246,501,7,126274,116887
1249,500,7,126286,116884
1251,499,7,126286,116896
1253,498,7,126296,116898
1256,497,7,126300,116898
1258,496,7,126315,116902
1261,494,7,126312,116905
1263,492,7,126312,116911
1266,491,7,126319,116916
1268,490,8,126337,116916
1271,488,7,126345,116918
1273,488,7,126345,116918
1275,489,7,126358,116919
1278,489,7,126366,116919
1281,489,7,126374,116929
1284,489,7,126384,116933
1286,489,7,126384,116940
1289,489,7,126401,116942
1291,489,7,126408,116942
1293,490,7,126419,116945
1296,490,7,126430,116956
1298,490,7,126447,116956
1301,489,7,126447,116967
1303,489,7,126448,116967
1306,490,7,126478,116967
1308,491,7,126478,116979
1311,491,7,126492,116979
1313,491,7,126497,116979
1315,490,7,126516,116992
1318,491,7,126516,116990
1320,491,7,126521,116998
1324,491,7,126548,116998
1326,491,7,126553,117007
1329,492,7,126553,117008
1331,492,7,126555,117008
1333,493,7,126574,117023
1336,492,7,126574,117024
1338,491,7,126582,117028
1341,489,7,126598,117028
1343,486,7,126603,117033
1346,477,7,126603,117042
1348,472,7,126613,117042
1351,470,7,126614,117042
1353,470,7,126645,117050
1355,474,7,126641,117055
1358,494,7,126641,117059
1360,511,7,126660,117067
1363,526,7,126664,117067
1366,543,7,126669,117069
1369,564,7,126669,117072
1371,608,7,126679,117074
1373,627,7,126696,117074
1376,648,7,126706,117088
1378,666,7,126706,117090
1381,706,7,126715,117097
1383,723,7,126733,117097
1386,734,8,126740,117099
1388,737,8,126739,117097
1391,729,7,126739,117114
1393,677,7,126760,117114
1546,505,7,127147,117291
1548,507,7,127154,117300
1551,508,7,127169,117296
1553,509,7,127179,117308
1555,511,7,127179,117302
1558,512,7,127184,117314
1560,513,7,127198,117318
1563,514,7,127209,117319
1565,516,7,127212,117320
1568,518,7,127220,117327
1570,519,7,127222,117327
1572,520,7,127228,117329
1575,523,7,127224,117337
1577,524,7,127235,117338
1581,526,7,127231,117332
1583,526,7,127233,117341
1586,527,7,127234,117332
1588,529,7,127223,117330
1591,530,7,127212,117326
1593,532,7,127199,117321
1595,534,7,127179,117313
1598,536,7,127165,117312
1600,537,7,127154,117299
1603,538,7,127130,117295
1605,540,7,127107,117288
1608,541,7,127085,117274
1610,542,7,127053,117259
1612,542,7,127024,117254
1615,543,7,127006,117239
1617,543,7,126959,117228
1620,543,8,126929,117214
1623,543,7,126898,117197
1626,542,7,126898,117189
1628,541,7,126814,117168
1631,541,7,126789,117168
1633,538,7,126753,117142
1635,536,7,126718,117122
1638,534,7,126680,117106
1640,531,7,126632,117097
1643,529,7,126600,117082
1645,524,7,126568,117065
1648,520,7,126568,117050
1650,516,7,126483,117038
1652,512,7,126442,117038
1655,503,7,126403,117006
1657,500,7,126353,116986
1660,493,7,126322,116973
1662,489,8,126322,116957
1666,484,7,126253,116946
1668,478,7,126214,116933
1671,475,7,126214,116921
1673,470,7,126165,116911
1675,467,7,126137,116911
1678,462,7,126123,116904
1680,460,7,126123,116889
1683,458,7,126098,116875
1685,456,7,126058,116875
1688,455,7,126039,116871
1690,452,7,126022,116859
1692,451,7,126022,116850
1695,450,7,125992,116851
1697,449,7,125975,116851
1700,449,7,125969,116840
1702,448,7,125969,116833
1705,448,7,125962,116834
1708,449,7,125949,116834
1711,449,7,125938,116822
1713,450,7,125937,116819
1715,451,7,125937,116816
1718,452,7,125923,116828
1720,453,7,125921,116828
1723,453,7,125908,116812
1725,455,7,125908,116809
1728,457,7,125909,116812
1730,458,7,125916,116812
1732,459,7,125905,116817
1735,461,7,125904,116809
1737,461,7,125896,116809
1740,462,7,125903,116808
1742,463,7,125903,116815
1745,464,7,125906,116814
1747,465,7,125913,116814
1751,466,7,125910,116819
1753,468,7,125910,116810
1755,469,7,125908,116811
1758,470,7,125908,116811
1760,471,7,125916,116809
1763,471,7,125915,116816
1765,472,7,125915,116816
1768,473,7,125918,116820
1770,474,7,125916,116820
1772,475,7,125917,116809
1775,476,7,125917,116812
1777,477,7,125923,116813
1780,478,7,125915,116813
1782,478,7,125925,116820
1785,479,7,125925,116815
1787,479,7,125923,116815
1790,480,7,125923,116818
1793,481,7,125923,116818
1795,482,7,125923,116815
1798,482,7,125930,116815
1800,483,7,125926,116815
1803,484,7,125926,116824
1805,484,7,125937,116825
1808,485,7,125930,116825
1810,485,7,125936,116814
1812,486,7,125933,116829
1815,486,7,125933,116829
1817,487,7,125937,116834
1820,488,7,125940,116834
1822,488,7,125941,116827
1825,488,7,125941,116843
1827,489,7,125949,116836
1830,489,7,125947,116836
1832,489,7,125963,116835
1835,489,7,125971,116845
1838,490,7,125971,116845
1840,490,7,125980,116845
1843,490,7,125979,116845
1845,490,7,125985,116856
1848,490,7,125985,116856
1850,490,7,125994,116855
1852,490,7,125992,116855
1855,490,7,125995,116863
1857,491,7,125991,116856
1860,491,7,126008,116856
1862,492,7,126018,116860
1865,492,7,126014,116866
1867,492,7,126015,116873
1870,492,7,126015,116867
1872,493,7,126023,116873
1874,493,7,126017,116873
1878,493,7,126023,116879
1880,493,7,126029,116870
1883,493,7,126024,116876
1885,494,7,126027,116874
1888,494,7,126043,116874
1890,494,7,126034,116886
1892,494,7,126034,116874
1895,494,7,126050,116874
1897,494,7,126029,116882
1900,493,7,126046,116882
1902,494,7,126051,116877
1905,494,7,126048,116879
1907,494,7,126045,116884
1910,495,7,126045,116885
1912,495,7,126043,116890
1914,496,7,126049,116883
1917,496,7,126036,116886
1920,496,7,126045,116884
1923,496,7,126051,116879
1925,497,7,126043,116887
1928,496,7,126035,116882
1930,496,7,126045,116883
1932,496,7,126041,116885
1935,496,7,126030,116887
1937,496,7,126035,116882
1940,496,7,126040,116884
1942,497,7,126041,116888
1945,497,7,126040,116890
1947,497,7,126045,116895
1950,497,7,126049,116893
1952,497,7,126040,116899
1954,497,7,126039,116895
1957,498,7,126052,116897
1959,498,7,126045,116894
1963,498,7,126061,116897
1965,498,7,126058,116903
1968,498,7,126042,116907
1970,499,7,126047,116898
1972,499,7,126060,116901
1975,500,7,126048,116902
1977,500,7,126048,116906
1980,500,7,126054,116900
1982,500,7,126077,116904
1985,500,7,126074,116907
1987,500,7,126078,116915
1990,500,7,126074,116912
1992,500,7,126081,116915
1994,500,7,126085,116920
1997,500,7,126086,116922
1999,500,7,126093,116925
2002,500,7,126103,116930
2004,500,7,126112,116943
2008,500,7,126103,116936
2010,500,7,126111,116941
2012,500,7,126123,116947
2015,500,7,126128,116943
2017,500,7,126141,116957
2020,500,7,126145,116955
2022,501,7,126147,116962
2025,501,7,126149,116962
2027,501,7,126168,116965
2030,501,7,126181,116966
2032,502,7,126196,116981
2034,502,7,126201,116982
2037,502,7,126201,116990
2039,502,7,126210,116993
2042,502,7,126216,116989
2044,502,7,126226,116995
2048,502,7,126227,116992
2050,502,7,126253,117006
2052,502,7,126250,117011
2055,502,7,126259,117017
2057,502,7,126275,117020
2060,503,7,126277,117015
2062,503,7,126290,117025
2065,503,7,126301,117028
2067,503,7,126308,117031
2070,504,7,126317,117035
2072,503,7,126326,117044
2074,503,7,126329,117041
2077,503,7,126345,117051
2079,504,7,126352,117054
2082,504,7,126352,117057
2084,504,7,126371,117059
2087,503,7,126376,117059
2089,503,7,126384,117069
2092,504,7,126398,117073
2095,505,7,126403,117074
2097,506,7,126421,117083
2100,506,7,126428,117087
2102,506,7,126437,117094
2105,508,7,126436,117097
2107,509,7,126450,117098
2110,510,7,126450,117101
2112,511,7,126467,117111
2114,512,7,126470,117111
2117,511,7,126494,117105
2119,511,7,126497,117124
2122,511,7,126505,117119
2124,511,7,126511,117118
2127,511,7,126511,117127
2129,511,7,126518,117129
2131,511,7,126532,117129
2135,511,7,126543,117139
2137,511,7,126550,117143
2140,513,7,126556,117148
2142,514,7,126556,117151
2145,515,7,126570,117152
2147,515,7,126577,117153
2150,515,7,126577,117159
2152,513,7,126596,117166
2154,513,7,126615,117166
2157,513,7,126610,117177
2159,512,7,126610,117173
2162,511,7,126626,117177
2164,510,7,126621,117177
2167,509,7,126633,117173
2169,507,7,126640,117183
2171,506,7,126646,117183
2174,504,7,126663,117196
2177,503,7,126663,117205
2180,502,7,126681,117208
2182,501,7,126688,117208
2185,500,7,126695,117212
2187,500,7,126695,117215
2190,499,7,126700,117213
2192,499,7,126721,117221
2194,498,7,126721,117224
2197,498,7,126735,117232
2199,498,7,126750,117232
2202,498,7,126749,117239
2204,498,7,126749,117240
2207,498,7,126763,117245
2209,498,7,126763,117245
2211,498,7,126780,117247
2214,498,7,126785,117251
2216,498,7,126789,117251
2220,498,7,126802,117255
2222,498,7,126802,117268
2225,499,7,126809,117268
2227,499,7,126809,117269
2230,498,7,126815,117272
2232,499,7,126827,117272
2234,499,7,126845,117277
2237,500,7,126846,117285
2239,500,7,126860,117285
2242,500,7,126860,117285
2244,501,7,126874,117296
2247,501,7,126874,117296
2249,502,7,126874,117302
2251,502,7,126894,117297
2254,501,7,126893,117297
2256,499,7,126917,117302
2259,493,7,126917,117317
2262,490,7,126923,117317
2265,481,7,126923,117322
2267,478,7,126928,117330
2270,478,7,126933,117330
2272,486,7,126933,117330
2274,499,7,126954,117328
2277,517,7,126965,117340
2279,536,7,126965,117346
2282,558,7,126967,117349
2284,582,7,126977,117351
2287,601,7,126987,117351
2289,621,7,127003,117350
2291,659,8,127003,117363
2294,675,8,127012,117363
2296,698,8,127029,117371
2299,734,8,127029,117375
2301,749,8,127022,117375
2305,756,8,127033,117379
2307,750,8,127043,117381
2310,710,8,127043,117388
2312,669,8,127061,117396
2314,633,8,127064,117396
2317,590,8,127073,117398
2319,547,8,127084,117403
2322,514,8,127080,117400
2324,453,8,127101,117408
2327,432,8,127110,117411
2329,420,8,127117,117417
2331,415,8,127117,117421
2334,416,8,127133,117428
2336,419,8,127131,117428
2339,423,7,127138,117431
2341,429,7,127147,117432
2344,433,7,127162,117438
2347,443,8,127171,117437
2350,447,7,127180,117441
2352,450,7,127194,117447
2354,454,7,127194,117460
2357,456,7,127200,117460
2359,461,7,127203,117456
2362,463,7,127217,117467
2364,465,7,127217,117454
2367,466,7,127227,117465
2369,470,7,127238,117477
2371,472,8,127249,117477
2374,473,7,127266,117485
2376,475,7,127258,117480
2379,476,7,127276,117488
2381,478,8,127275,117490
2384,479,7,127288,117493
2386,480,7,127298,117500
2390,481,7,127303,117496
2392,484,7,127321,117506
2394,484,7,127321,117506
2397,485,7,127326,117509
2399,486,7,127336,117510
2402,487,7,127348,117522
2404,489,7,127339,117524
2407,490,7,127350,117526
2409,491,7,127371,117535
2411,492,7,127382,117532
2414,494,7,127393,117540
2416,495,7,127398,117540
2419,496,7,127393,117546
2421,497,7,127407,117542
2424,498,7,127421,117554
2426,500,7,127416,117550
2429,501,7,127428,117562
2432,502,7,127441,117559
2434,502,7,127452,117564
2437,503,7,127462,117575
2439,504,7,127470,117571
2442,505,7,127479,117580
2444,506,7,127495,117585
2447,507,7,127487,117583
2449,508,7,127507,117593
2451,509,7,127507,117593
2454,510,7,127527,117599
2456,511,7,127528,117604
2459,513,7,127545,117600
2461,515,7,127545,117613
2464,516,7,127563,117615
2466,517,7,127563,117618
2469,518,7,127577,117621
2471,520,7,127572,117619
2473,521,7,127587,117630
2477,522,7,127594,117624
2479,523,7,127607,117623
2482,525,7,127608,117635
2484,527,7,127617,117643
2487,528,7,127625,117644
2489,530,7,127623,117652
2491,531,7,127633,117645
2494,533,7,127629,117645
2496,534,7,127625,117644
2499,537,7,127617,117650
2501,538,7,127609,117649
2504,540,8,127595,117635
2506,541,7,127590,117631
2509,543,7,127571,117625
2511,546,7,127545,117620
2513,548,7,127531,117609
2516,549,7,127499,117599
2519,550,7,127481,117588
2522,552,7,127455,117576
2524,554,7,127421,117571
2527,555,7,127397,117560
2529,556,7,127366,117541
2531,558,7,127338,117534
2534,558,7,127303,117525
2536,558,7,127269,117515
2539,559,7,127239,117498
2541,559,7,127202,117480
2544,559,7,127170,117475
2546,558,7,127121,117455
2549,558,8,127096,117446
2551,556,7,127064,117433
2553,555,8,127023,117417
2556,553,8,126979,117402
2558,551,7,126942,117381
2562,547,8,126914,117370
2564,544,7,126875,117353
2567,541,7,126875,117344
2569,537,7,126804,117336
2571,534,7,126774,117336
2574,526,7,126753,117311
2576,521,7,126718,117301
2579,517,7,126696,117296
2581,512,7,126663,117283
2584,508,7,126643,117274
2586,500,7,126624,117260
2589,496,7,126624,117255
2591,491,7,126587,117246
2593,487,7,126576,117246
2596,480,7,126558,117236
2598,477,7,126552,117226
2601,475,7,126552,117227
2604,472,7,126524,117225
2607,469,7,126520,117225
2609,465,7,126519,117220
2611,464,7,126519,117222
2614,463,7,126496,117211
2616,462,7,126490,117211
2619,461,7,126494,117209
2621,460,7,126488,117200
2624,460,7,126488,117208
2626,459,7,126485,117204
2629,460,7,126483,117204
2631,460,7,126475,117207
2633,461,7,126475,117207
2636,461,7,126469,117205
2638,462,7,126479,117205
2641,462,7,126483,117205
2643,464,7,126484,117206
2647,464,7,126481,117206
2649,466,7,126481,117200
2651,467,7,126470,117197
2654,468,7,126475,117201
2656,469,7,126478,117201
2659,472,7,126476,117203
2661,472,7,126476,117200
2664,474,7,126481,117199
2666,475,7,126483,117199
2669,476,7,126485,117208
2671,477,7,126485,117202
2673,478,7,126486,117202
2676,479,7,126483,117203
2678,480,7,126483,117203
2681,481,7,126485,117205
2683,482,7,126476,117205
2686,482,7,126482,117201
2689,483,7,126482,117200
2691,485,7,126480,117195
2694,486,7,126476,117195
2696,487,7,126482,117198
2699,488,7,126482,117199
2701,489,7,126476,117199
2704,489,7,126479,117201
2706,490,7,126479,117198
2709,492,7,126482,117190
2711,493,7,126469,117190
2713,493,7,126478,117195
2716,495,7,126478,117186
2718,495,7,126477,117193
2721,496,7,126464,117193
2723,497,7,126471,117196
2726,498,7,126471,117186
2728,498,7,126468,117186
2731,498,7,126467,117196
2734,499,7,126467,117189
2736,500,7,126466,117196
2739,500,7,126475,117196
2741,500,7,126471,117198
2744,501,7,126471,117195
2746,502,7,126474,117194
2749,502,7,126475,117194
2751,502,7,126475,117190
2753,502,7,126483,117199
2756,502,7,126480,117199
2758,502,7,126480,117190
2761,503,7,126487,117198
2763,504,7,126482,117211
2766,504,7,126484,117211
2768,504,7,126499,117208
2770,505,7,126499,117207
2774,505,7,126500,117207
2776,505,7,126500,117204
2779,505,7,126499,117208
2781,506,7,126511,117213
2784,506,7,126505,117213
2786,506,7,126510,117216
2789,506,7,126510,117216
2791,506,7,126513,117216
2793,507,7,126513,117216
2796,507,7,126522,117215
2798,507,7,126521,117218
2801,507,7,126521,117221
2803,508,7,126529,117224
2806,508,7,126528,117224
2808,508,7,126516,117220
2810,509,7,126527,117216
2813,509,7,126525,117224
2816,510,7,126527,117220
2819,510,7,126528,117219
2821,510,7,126528,117220
2824,510,7,126522,117220
2826,510,7,126525,117217
2829,510,7,126529,117219
2831,510,7,126519,117221
2833,510,7,126527,117213
2836,510,7,126530,117216
2838,510,7,126521,117221
2841,510,7,126528,117223
2843,511,7,126527,117215
2846,511,7,126526,117218
2848,512,7,126519,117215
2850,512,7,126522,117217
2853,512,7,126528,117218
2855,512,7,126525,117226
2859,511,7,126513,117227
2861,512,7,126531,117221
2864,512,7,126525,117224
2866,513,7,126529,117225
2869,513,7,126536,117226
2871,514,7,126532,117222
2873,514,7,126528,117231
2876,514,7,126529,117222
2878,515,7,126524,117228
2881,515,7,126529,117221
2883,515,7,126536,117220
2886,515,7,126540,117228
2888,514,7,126537,117229
2890,514,7,126540,117227
2893,515,7,126541,117235
2895,515,7,126548,117236
2898,515,7,126547,117236
2900,515,7,126543,117241
2904,515,7,126550,117239
2906,516,7,126550,117247
2909,516,7,126549,117247
2911,517,7,126560,117246
2913,517,7,126570,117254
2916,517,7,126582,117245
2918,517,7,126590,117253
2921,517,7,126585,117251
2923,517,7,126585,117250
2926,517,7,126588,117261
2928,518,7,126598,117260
2930,518,7,126592,117257
2933,517,7,126598,117271
2935,517,7,126605,117267
2938,517,7,126619,117266
2940,517,7,126628,117273
2944,517,7,126621,117275
2946,517,7,126637,117280
2949,518,7,126645,117278
2951,518,7,126659,117287
2953,518,7,126658,117287
2956,519,7,126654,117288
2958,519,7,126655,117303
2961,519,7,126682,117298
2963,518,7,126679,117304
2966,519,7,126688,117310
2968,519,7,126701,117306
2970,519,7,126709,117310
2973,518,7,126710,117313
2975,519,7,126716,117320
2978,518,7,126726,117327
2980,519,7,126733,117318
2983,519,7,126737,117331
2985,519,7,126740,117344
2989,519,7,126759,117342
2991,519,7,126760,117345
2993,519,7,126763,117342
2996,518,7,126770,117347
2998,518,7,126779,117349
3001,519,7,126790,117353
3003,519,7,126797,117355
3006,519,7,126807,117357
3008,519,7,126814,117361
3010,520,7,126828,117364
3013,520,7,126831,117369
3015,520,7,126826,117368
3018,520,7,126837,117377
3020,520,7,126848,117371
3023,520,7,126852,117382
3025,520,7,126870,117378
3028,520,7,126859,117382
3031,520,7,126872,117386
3033,520,7,126871,117392
3036,520,7,126891,117392
3038,521,7,126889,117394
3041,521,7,126889,117398
3043,520,7,126897,117407
3046,520,7,126904,117407
3048,519,7,126927,117414
3050,519,7,126918,117415
3053,519,7,126930,117413
3055,520,7,126930,117417
3058,520,7,126937,117422
3060,521,7,126945,117421
3063,521,7,126945,117422
3065,521,7,126958,117423
3068,521,7,126963,117423
3070,521,7,126977,117435
3073,521,7,126981,117431
3076,521,7,126986,117445
3078,521,7,126986,117441
3081,521,7,126999,117444
3083,521,7,127003,117442
3086,521,7,127003,117454
3088,521,7,127014,117458
3090,522,7,127026,117458
3093,521,7,127042,117470
3095,521,7,127042,117457
3098,521,7,127040,117472
3100,521,8,127046,117472
3103,521,7,127052,117466
3105,521,7,127063,117476
3108,521,8,127062,117482
3110,521,8,127066,117480
3112,522,7,127074,117480
3116,521,7,127086,117485
3118,521,7,127086,117493
3121,521,7,127095,117500
3123,521,7,127096,117500
3126,521,8,127117,117497
3128,522,7,127118,117502
3130,522,7,127118,117504
3133,522,8,127127,117509
3135,522,8,127134,117509
3138,522,7,127132,117507
3140,521,7,127132,117520
3143,521,7,127149,117525
3145,521,8,127158,117525
3148,521,7,127162,117523
3150,522,7,127162,117522
3152,522,7,127171,117533
3155,522,7,127182,117533
3158,522,8,127191,117535
3161,522,7,127193,117543
3163,522,7,127193,117546
3166,522,8,127204,117542
3168,522,7,127210,117542
3170,522,7,127223,117545
3173,522,7,127225,117556
3175,521,7,127233,117556
3178,522,7,127233,117553
3180,522,7,127241,117570
3183,522,7,127244,117570
3185,522,7,127244,117572
3188,522,7,127261,117571
3190,522,7,127268,117571
3192,522,7,127281,117574
3195,522,7,127283,117584
3197,522,7,127293,117584
3201,521,8,127293,117592
3203,521,8,127296,117583
3206,522,7,127310,117583
3208,522,7,127310,117588
3210,522,7,127319,117603
3213,522,8,127337,117603
3215,522,7,127337,117599
3218,522,8,127351,117609
3220,523,7,127341,117608
3223,522,7,127354,117608
3225,522,7,127367,117616
3228,522,7,127367,117619
3230,522,8,127376,117619
3232,522,7,127389,117625
3235,522,7,127389,117632
3237,522,7,127391,117638
3240,522,8,127403,117638
3243,522,7,127408,117634
3246,522,8,127408,117640
3248,523,7,127417,117643
3250,523,7,127415,117643
3253,523,7,127431,117651
3255,523,8,127441,117657
3258,523,7,127441,117660
3260,523,7,127460,117663
3263,524,8,127467,117663
3265,524,8,127462,117667
3268,524,7,127462,117676
3270,525,7,127480,117679
3272,526,8,127479,117679
3275,526,7,127492,117686
3277,526,7,127490,117682
3280,526,7,127507,117694
3282,527,7,127514,117687
3286,527,7,127529,117702
3288,528,7,127538,117699
3290,528,7,127538,117707
3293,529,7,127548,117713
3295,529,7,127548,117713
3298,529,7,127557,117714
3300,528,7,127553,117705
3303,528,7,127569,117712
3305,527,7,127574,117718
3308,527,8,127588,117727
3310,526,7,127588,117730
3312,525,7,127599,117722
3315,525,7,127608,117727
3317,524,7,127616,117730
3320,522,7,127607,117733
3322,521,7,127631,117734
3325,520,7,127633,117735
3328,518,7,127633,117741
3330,518,7,127648,117748
3333,517,7,127661,117757
3335,517,7,127655,117750
3338,516,7,127674,117760
3340,516,7,127670,117758
3343,516,7,127677,117766
3345,516,7,127696,117768
3348,516,7,127706,117772
3350,515,7,127710,117781
3352,515,7,127714,117777
3355,515,7,127722,117780
3357,516,7,127735,117788
3360,515,7,127751,117793
3362,516,8,127741,117789
3365,516,7,127742,117796
3367,516,7,127760,117793
3369,516,7,127762,117803
3373,517,7,127787,117806
3375,517,7,127786,117820
3378,516,7,127780,117808
3380,516,7,127787,117814
3383,516,7,127790,117822
3385,516,7,127800,117824
3388,516,7,127810,117824
3390,516,7,127826,117828
3392,516,7,127830,117832
3395,516,7,127837,117835
3397,515,7,127853,117844
3400,513,7,127849,117840
3402,509,7,127861,117846
3405,504,7,127863,117849
3407,498,7,127877,117854
3409,494,7,127877,117861
3412,498,7,127877,117858
3415,505,7,127894,117864
3418,515,7,127898,117871
3420,530,7,127920,117865
3423,550,7,127927,117869
3425,581,7,127924,117875
3428,603,7,127936,117875
3430,625,7,127939,117885
3432,648,7,127955,117883
3435,674,7,127949,117886
3437,701,8,127954,117893
3440,727,8,127955,117895
3442,760,8,127973,117896
3445,770,8,127978,117901
3447,773,8,127985,117905
3449,759,8,127989,117903
3452,708,8,127999,117915
3454,675,7,128016,117915
3458,639,8,128015,117921
3460,589,8,128017,117924
3463,543,8,128025,117922
3465,488,8,128036,117936
3468,463,8,128045,117938
3470,445,7,128048,117938
3472,435,8,128057,117934
3475,431,7,128062,117944
3477,432,7,128066,117939
3480,435,7,128074,117947
3482,444,7,128083,117952
3485,447,7,128089,117953
3487,455,7,128095,117957
3489,460,7,128106,117959
3492,462,7,128109,117961
3494,467,7,128117,117964
3497,469,7,128121,117965
3500,471,7,128129,117973
3503,473,7,128141,117974
3505,476,7,128149,117976
3508,478,7,128148,117977
3510,479,7,128161,117982
3512,480,7,128158,117982
3515,482,7,128168,117987
3517,483,7,128178,117992
3520,485,7,128178,117993
3522,487,7,128193,117996
3525,488,7,128196,117996
3527,490,7,128201,118004
3529,491,7,128212,118001
3532,493,7,128214,118009
3534,494,7,128214,118006
3537,496,7,128229,118014
3539,497,7,128230,118015
3543,498,7,128230,118012
3545,498,7,128238,118011
3548,499,7,128253,118011
3550,500,7,128268,118032
3552,500,7,128263,118028
3555,502,7,128281,118035
3557,503,7,128281,118035
3560,505,7,128278,118037
3562,506,7,128291,118044
3565,507,7,128291,118046
3567,508,7,128309,118047
3569,509,7,128313,118047
3572,510,7,128330,118059
3574,510,7,128330,118062
3577,512,7,128347,118068
3579,512,7,128348,118068
3582,513,7,128363,118070
3585,514,7,128358,118067
3588,515,7,128364,118081
3590,517,7,128372,118082
3592,517,7,128381,118082
3595,518,7,128391,118081
3597,519,7,128391,118088
3600,520,7,128401,118092
3602,521,7,128410,118092
3605,522,7,128415,118096
3607,524,7,128415,118097
3609,525,7,128414,118098
3612,525,7,128438,118098
3614,527,7,128445,118109
3617,528,7,128449,118114
3619,530,7,128449,118115
3622,531,7,128454,118116
3624,532,7,128466,118116
3628,533,7,128468,118124
3630,535,7,128468,118121
3632,536,7,128479,118117
3635,537,7,128468,118117
3637,539,7,128462,118111
3640,540,7,128459,118122
3642,543,7,128459,118109
3645,545,7,128440,118106
3647,546,7,128439,118106
3649,547,7,128415,118095
3652,550,7,128396,118090
3654,550,7,128385,118090
3657,553,7,128385,118077
3659,555,7,128362,118070
3662,557,7,128315,118070
3664,559,8,128315,118046
3667,561,8,128296,118035
3670,562,7,128235,118035
3672,563,7,128207,118029
3675,564,7,128207,118005
3677,565,7,128175,117991
3680,565,8,128113,117991
3682,565,8,128089,117979
3685,565,8,128089,117960
3687,565,8,128022,117960
3689,565,8,127983,117951
3692,564,8,127983,117929
3694,563,8,127958,117912
3697,563,7,127890,117912
3699,561,8,127858,117903
3702,558,8,127858,117881
3704,555,7,127827,117864
3707,553,8,127799,117864
3709,550,8,127746,117859
3712,547,7,127710,117846
3715,541,8,127710,117819
3717,536,7,127686,117813
3720,532,8,127625,117813
3722,527,8,127613,117806
3725,523,7,127613,117786
3727,514,8,127589,117776
3729,510,7,127569,117776
3732,506,8,127537,117776
3734,502,7,127526,117774
3737,498,7,127526,117761
3739,490,8,127530,117757
3742,486,8,127487,117754
3744,483,8,127481,117751
3747,480,7,127481,117745
3749,474,7,127483,117744
3751,472,7,127482,117744
3755,469,7,127478,117742
3757,468,7,127474,117736
3760,466,7,127460,117737
3762,464,7,127466,117738
3765,463,7,127457,117733
3767,462,7,127463,117731
3769,462,7,127463,117735
3772,461,7,127461,117735
3774,461,7,127452,117730
3777,461,7,127461,117731
3779,462,7,127477,117729
3782,462,7,127472,117729
3784,463,7,127461,117730
3787,464,7,127461,117734
3789,464,7,127467,117730
3791,465,7,127462,117727
3794,466,7,127464,117729
3796,468,7,127465,117722
3800,469,7,127465,117727
3802,470,7,127471,117727
3805,470,7,127475,117729
3807,472,7,127477,117723
3809,473,7,127475,117728
3812,474,7,127475,117727
3814,475,7,127478,117732
3817,476,7,127481,117728
3819,477,7,127488,117733
3822,479,7,127482,117735
3824,481,7,127484,117732
3827,482,7,127481,117733
3829,482,7,127477,117723
3831,483,7,127479,117729
3834,485,7,127483,117727
3836,485,7,127483,117720
3840,485,7,127471,117728
3842,486,7,127471,117719
3845,487,7,127475,117721
3847,489,7,127469,117716
3849,490,7,127467,117718
3852,491,7,127468,117712
3854,491,7,127465,117711
3857,492,7,127466,117703
3859,494,7,127467,117707
3862,494,7,127451,117707
3864,495,7,127453,117709
3867,496,7,127455,117708
3869,497,7,127436,117704
3871,497,7,127433,117700
3874,497,7,127438,117695
3876,498,7,127446,117696
3879,498,7,127430,117699
3881,498,7,127433,117693
3885,499,7,127435,117697
3887,500,7,127427,117692
3889,501,7,127431,117692
3892,502,7,127428,117685
3894,502,7,127428,117699
3897,502,7,127430,117695
3899,502,7,127430,117699
3902,502,7,127441,117694
3904,502,7,127437,117695
3907,502,7,127439,117695
3909,502,7,127432,117697
3911,503,7,127441,117701
3914,503,7,127442,117694
3916,503,7,127448,117697
3919,504,7,127450,117699
3921,506,7,127442,117705
3924,506,7,127452,117697
3927,506,7,127446,117702
3929,507,7,127451,117700
3932,507,7,127455,117703
3934,507,7,127447,117698
3937,506,7,127448,117708
3939,506,7,127465,117699
3942,506,7,127458,117707
3944,506,7,127462,117705
3947,507,7,127455,117701
3949,508,7,127456,117705
3951,508,7,127456,117701
3954,507,7,127449,117696
3956,507,7,127451,117702
3959,507,7,127451,117693
3961,506,7,127458,117703
3964,506,7,127452,117700
3966,506,7,127454,117695
3969,506,7,127456,117695
3972,507,7,127458,117700
3974,507,7,127457,117686
3977,507,7,127448,117695
3979,507,7,127450,117689
3982,507,7,127442,117689
3984,507,7,127445,117686
3987,507,7,127445,117681
3989,507,7,127439,117682
3991,508,7,127440,117682
3994,508,7,127430,117688
3996,508,7,127434,117673
3999,508,7,127434,117677
4001,508,7,127428,117679
4004,509,7,127434,117679
4006,509,7,127440,117681
4008,509,7,127432,117680
4012,509,7,127431,117674
4014,509,7,127431,117684
4017,508,7,127425,117676
4019,508,7,127434,117681
4022,508,7,127434,117675
4024,508,7,127423,117672
4027,509,7,127427,117672
4029,509,7,127430,117681
4031,509,7,127435,117677
4034,509,7,127436,117677
4036,510,7,127436,117679
4039,510,7,127430,117674
4041,511,7,127433,117677
4044,510,7,127433,117688
4046,510,7,127441,117686
4048,510,7,127444,117686
4051,510,8,127455,117695
4054,510,7,127455,117692
4057,510,7,127457,117691
4059,510,7,127458,117691
4062,511,7,127468,117689
4064,512,7,127461,117696
4067,512,7,127467,117695
4069,512,7,127475,117700
4071,512,7,127475,117700
4074,512,7,127483,117696
4076,512,7,127483,117702
4079,512,7,127486,117702
4081,512,7,127488,117702
4084,512,7,127492,117709
4086,512,8,127492,117707
4088,512,7,127501,117715
4091,513,7,127514,117715
4093,513,8,127525,117713
4097,512,7,127529,117715
4099,512,8,127529,117717
4102,513,7,127530,117719
4104,513,7,127543,117719
4107,513,7,127543,117722
4109,514,7,127543,117727
4111,514,7,127546,117733
4114,514,8,127561,117733
4116,514,7,127553,117739
4119,514,7,127578,117737
4121,513,7,127578,117741
4124,513,7,127582,117745
4126,513,8,127589,117745
4128,513,7,127605,117750
4131,513,7,127605,117750
4133,514,7,127610,117757
4136,515,7,127613,117757
4139,515,7,127626,117761
4142,516,7,127626,117761
4144,516,7,127643,117761
4147,515,7,127645,117767
4149,514,7,127645,117763
4151,513,7,127648,117771
4154,513,7,127663,117771
4156,513,7,127666,117778
4159,513,7,127666,117776
4161,513,7,127674,117783
4164,514,7,127684,117783
4166,514,7,127699,117784
4168,514,7,127695,117795
4171,514,7,127695,117792
4173,514,7,127701,117787
4176,513,7,127702,117787
4178,513,7,127715,117793
4182,513,7,127715,117787
4184,514,7,127718,117792
4187,514,7,127723,117792
4189,515,7,127739,117800
4191,515,7,127736,117810
4194,514,7,127736,117809
4196,514,7,127752,117812
4199,514,7,127759,117812
4201,514,7,127756,117813
4204,514,7,127756,117820
4206,514,7,127766,117812
4208,514,7,127765,117812
4211,514,7,127772,117821
4213,515,7,127768,117823
4216,515,7,127769,117824
4218,516,7,127796,117827
4221,516,7,127792,117836
4224,516,7,127793,117835
4227,516,7,127793,117835
4229,515,7,127806,117838
4231,515,7,127801,117838
4234,514,7,127813,117840
4236,515,7,127813,117840
4239,515,7,127817,117846
4241,515,7,127824,117846
4244,514,7,127843,117842
4246,514,7,127842,117854
4248,514,7,127842,117847
4251,514,7,127847,117847
4253,514,7,127835,117849
4256,514,7,127862,117859
4258,515,7,127862,117867
4261,515,7,127868,117868
4263,515,7,127877,117861
4267,515,7,127868,117862
4269,515,7,127875,117865
4271,514,7,127881,117868
4274,514,7,127874,117870
4276,514,7,127878,117868
4279,514,7,127888,117879
4281,514,7,127897,117871
4284,514,7,127900,117876
4286,514,7,127909,117882
4288,514,7,127916,117881
4291,514,7,127912,117877
4293,514,7,127921,117879
4296,514,7,127925,117881
4298,514,7,127926,117891
4301,514,7,127937,117892
4303,513,7,127933,117901
4306,513,7,127941,117897
4308,514,7,127950,117898
4311,514,7,127956,117899
4314,515,7,127966,117897
4316,514,7,127978,117905
4319,514,7,127962,117906
4321,514,7,127972,117909
4324,515,7,127978,117901
4326,516,7,127973,117908
4328,515,7,127981,117920
4331,515,7,127989,117911
4333,516,7,127992,117918
4336,516,7,128000,117913
4338,517,7,128012,117917
4341,518,7,128008,117921
4343,519,7,128014,117923
4346,519,7,128017,117921
4348,521,7,128019,117927
4350,521,7,128022,117930
4354,521,7,128029,117928
4356,520,7,128038,117937
4359,521,7,128044,117941
4361,521,7,128043,117937
4364,521,7,128046,117939
4366,520,7,128057,117947
4368,519,7,128064,117944
4371,518,7,128063,117945
4373,517,7,128072,117953
4376,516,7,128075,117944
4378,516,7,128077,117954
4381,516,7,128089,117948
4383,515,7,128097,117964
4386,513,7,128096,117963
4388,511,7,128091,117964
4390,510,7,128108,117968
4393,509,7,128115,117964
4396,508,7,128120,117982
4399,508,7,128117,117976
4401,507,7,128119,117980
4404,508,7,128123,117971
4406,508,7,128129,117983
4408,509,7,128149,117981
4411,509,7,128150,117984
4413,508,7,128154,117987
4416,506,7,128155,117983
4418,506,7,128166,117990
4421,506,7,128170,117990
4423,507,7,128171,117997
4426,507,7,128172,117999
4428,508,7,128193,118010
4430,509,7,128201,118006
4433,508,7,128203,118014
4435,508,7,128199,118014
4439,508,7,128219,118008
4441,509,7,128221,118014
4444,508,7,128221,118011
4446,508,7,128227,118024
4448,508,7,128231,118024
4451,508,7,128248,118030
4453,508,7,128247,118019
4456,507,7,128264,118027
4458,505,7,128263,118035
4461,503,7,128272,118031
4463,495,7,128284,118035
4466,492,7,128284,118038
4468,488,7,128276,118042
4470,488,7,128299,118042
4473,498,7,128303,118045
4475,509,7,128304,118045
4478,521,7,128304,118051
4481,541,7,128313,118051
4484,558,7,128323,118051
4486,600,7,128323,118054
4488,620,7,128323,118057
4491,647,7,128338,118062
4493,665,7,128353,118062
4496,687,8,128360,118071
4498,726,7,128356,118072
4501,741,7,128356,118073
4503,755,8,128367,118078
4506,760,8,128375,118078
4508,736,8,128380,118088
4510,712,8,128380,118078
4513,669,8,128383,118087
4515,634,8,128391,118087
4518,596,7,128406,118093
4520,526,8,128418,118092
4524,503,8,128422,118108
4526,458,8,128422,118100
4528,438,8,128427,118105
4531,426,8,128435,118108
4533,423,8,128442,118108
4536,422,8,128451,118115
4538,423,7,128451,118110
4541,429,7,128472,118111
4543,434,8,128467,118111
4546,439,7,128478,118122
4548,450,7,128489,118129
4550,454,7,128489,118136
4553,459,7,128495,118127
4555,461,7,128495,118129
4558,464,7,128499,118133
4560,465,7,128503,118133
4563,467,7,128513,118141
4566,471,7,128513,118139
4568,474,7,128511,118139
4571,476,7,128531,118142
4573,478,7,128530,118142
4576,479,7,128530,118148
4578,480,7,128538,118148
4581,481,7,128547,118148
4583,483,7,128547,118154
4586,484,7,128548,118157
4588,485,7,128568,118157
4590,486,7,128579,118157
4593,487,7,128581,118165
4595,488,7,128581,118165
4598,490,7,128581,118171
4600,491,7,128597,118171
4603,492,7,128601,118171
4605,494,7,128601,118183
4608,495,7,128613,118180
4611,496,8,128618,118180
4613,497,7,128633,118187
4616,499,7,128633,118186
4618,499,7,128631,118188
4621,500,7,128634,118188
4623,501,7,128647,118191
4626,502,7,128647,118188
4628,502,7,128658,118188
4630,502,7,128651,118203
4633,504,7,128651,118202
4635,505,7,128662,118202
4638,505,7,128678,118202
4640,506,7,128675,118205
4643,508,7,128675,118214
4645,508,7,128690,118216
4647,509,7,128693,118216
4651,510,8,128719,118225
4653,511,7,128712,118223
4656,513,7,128712,118225
4658,514,7,128723,118230
4661,515,7,128727,118230
4663,516,7,128730,118234
4666,516,7,128730,118240
4668,517,7,128739,118242
4670,518,7,128750,118242
4673,519,7,128754,118238
4675,520,8,128760,118247
4678,522,7,128760,118256
4680,524,7,128779,118256
4683,525,7,128781,118249
4685,527,7,128788,118262
4687,529,7,128788,118254
4690,531,7,128798,118264
4692,532,7,128794,118264
4696,532,7,128803,118261
4698,533,7,128806,118257
4701,534,7,128801,118265
4703,538,7,128813,118266
4706,539,7,128807,118268
4708,540,7,128807,118260
4710,543,7,128805,118260
4713,544,7,128794,118261
4715,545,7,128789,118251
4718,547,7,128780,118249
4720,550,7,128781,118242
4723,552,7,128747,118237
4725,554,7,128726,118230
4727,556,7,128705,118224
4730,557,7,128695,118215
4732,558,8,128668,118212
4736,558,7,128639,118196
4738,559,7,128628,118189
4741,559,7,128596,118181
4743,561,8,128577,118172
4746,561,7,128547,118166
4748,561,7,128515,118147
4750,561,7,128483,118141
4753,559,8,128458,118128
4755,557,8,128427,118117
4758,556,7,128400,118120
4760,554,7,128378,118095
4763,552,8,128346,118080
4765,548,8,128317,118074
4767,544,7,128291,118059
4770,539,7,128262,118056
4772,535,7,128229,118044
4775,531,7,128185,118033
4777,527,7,128164,118016
4781,521,7,128126,118009
4783,512,8,128106,117994
4786,507,7,128072,117991
4788,503,7,128052,117976
4790,497,7,128024,117964
4793,491,7,128011,117955
4795,485,7,127989,117949
4798,480,7,127962,117943
4800,475,7,127957,117938
4803,473,7,127928,117931
4805,470,7,127908,117929
4807,467,7,127900,117921
4810,461,7,127879,117916
4812,459,7,127867,117913
4815,457,7,127869,117900
4817,455,7,127861,117906
4820,454,7,127850,117899
4823,453,7,127843,117892
4826,453,7,127836,117887
4828,454,7,127823,117883
4830,454,7,127828,117893
4833,454,7,127814,117886
4835,453,7,127809,117884
4838,454,7,127811,117884
4840,455,7,127804,117886
4843,456,7,127815,117877
4845,457,7,127808,117880
4847,458,7,127804,117877
4850,459,7,127800,117878
4852,459,7,127805,117882
4855,459,7,127809,117879
4857,460,7,127802,117877
4860,460,7,127797,117874
4862,463,7,127802,117875
4866,464,7,127810,117878
4868,465,7,127816,117881
4870,466,7,127819,117878
4873,467,7,127809,117875
4875,468,7,127823,117877
4878,469,7,127815,117884
4880,471,7,127821,117880
4883,472,7,127820,117877
4885,474,7,127831,117877
4887,475,7,127838,117876
4890,475,7,127843,117883
4892,476,7,127833,117876
4895,476,7,127847,117862
4897,478,7,127841,117880
4900,479,7,127851,117886
4902,481,7,127846,117885
4905,483,7,127840,117874
4908,485,7,127841,117881
4910,486,7,127849,117876
4913,486,7,127851,117874
4915,487,7,127847,117878
4918,487,7,127845,117871
4920,488,7,127846,117869
4923,489,7,127846,117867
4925,490,7,127838,117871
4927,490,7,127844,117871
4930,491,7,127849,117868
4932,491,7,127844,117865
4935,491,7,127853,117869
4937,492,7,127848,117863
4940,493,7,127849,117873
4942,495,7,127851,117868
4945,496,7,127851,117864
4947,497,7,127851,117866
4950,497,7,127851,117866
4953,498,7,127855,117871
4955,498,7,127855,117865
4958,498,7,127855,117871
4960,499,7,127855,117868
4963,499,7,127860,117868
4965,500,7,127867,117871
4967,500,7,127867,117879
4970,500,7,127863,117877
4972,501,7,127868,117877
4975,502,7,127877,117874
4977,503,7,127883,117875
4980,503,7,127883,117873
4982,501,7,127879,117870
4985,501,7,127876,117870
4987,500,7,127876,117875
4989,500,7,127876,117877
4993,501,7,127871,117870
4995,502,7,127878,117870
4998,502,7,127873,117870
5000,501,7,127873,117870
5003,502,7,127872,117882
5005,502,7,127872,117873
5007,503,7,127879,117872
5010,503,7,127867,117874
5012,503,7,127876,117874
5015,503,7,127875,117865
5017,503,7,127875,117877
5020,503,7,127872,117864
5022,503,7,127864,117864
5025,503,7,127857,117869
5027,502,7,127857,117861
5029,503,7,127857,117854
5032,503,7,127856,117861
5035,504,7,127856,117859
5038,504,7,127849,117859
5040,503,7,127848,117859
5043,503,7,127847,117852
5045,504,7,127847,117845
5047,504,7,127833,117847
5050,505,7,127828,117847
5052,505,7,127837,117848
5055,504,7,127833,117844
5057,505,7,127825,117844
5060,505,7,127823,117840
5062,505,7,127823,117843
5065,505,7,127821,117847
5067,505,7,127819,117842
5069,505,7,127819,117836
5072,506,7,127811,117836
5074,506,7,127781,117835
5078,507,7,127806,117840
5080,506,7,127806,117828
5083,506,7,127810,117831
5085,506,7,127799,117831
5087,506,7,127801,117837
5090,507,7,127801,117836
5092,507,7,127804,117823
5095,507,7,127794,117823
5097,507,7,127812,117831
5100,507,7,127812,117831
5102,507,7,127794,117831
5105,509,7,127794,117832
5107,509,7,127803,117828
5109,510,7,127795,117828
5112,510,7,127803,117833
5114,508,7,127798,117829
5117,507,7,127798,117834
5120,507,7,127801,117826
5123,508,7,127792,117826
5125,508,7,127805,117838
5127,508,7,127813,117834
5130,509,7,127813,117838
5132,509,7,127813,117838
5135,509,7,127824,117835
5137,508,7,127825,117846
5140,509,7,127825,117844
5142,509,7,127836,117841
5145,509,7,127830,117841
5147,510,7,127820,117847
5149,510,7,127833,117849
5152,509,7,127845,117845
5154,509,7,127847,117846
5157,509,7,127848,117846
5159,509,7,127859,117852
5163,510,7,127859,117851
5165,511,7,127863,117856
5167,511,7,127867,117856
5170,510,7,127874,117861
5172,510,7,127876,117861
5175,509,7,127886,117862
5177,510,7,127888,117864
5180,510,7,127910,117867
5182,510,7,127905,117869
5185,510,7,127905,117868
5187,510,7,127911,117868
5189,510,7,127909,117875
5192,511,7,127914,117877
5194,511,7,127930,117878
5197,511,7,127938,117881
5199,511,7,127943,117881
5202,511,7,127939,117885
5204,511,7,127952,117895
5207,510,7,127954,117887
5210,510,7,127958,117890
5212,511,7,127971,117892
5215,512,7,127965,117898
5217,512,7,127973,117892
5220,513,7,127987,117903
5222,514,7,127992,117905
5225,513,7,127999,117907
5227,513,7,127999,117910
5229,512,7,128003,117913
5232,511,7,128000,117914
5234,511,7,128001,117917
5237,510,7,128016,117916
5239,510,7,128026,117912
5242,510,7,128031,117919
5244,511,7,128039,117921
5246,512,7,128052,117925
5250,512,7,128048,117921
5252,511,7,128058,117929
5255,511,7,128059,117930
5257,510,7,128066,117935
5260,510,7,128060,117940
5262,510,7,128070,117938
5265,510,7,128069,117939
5267,511,7,128080,117932
5269,511,7,128081,117946
5272,511,7,128099,117948
5274,511,7,128100,117947
5277,511,7,128099,117950
5279,512,7,128101,117946
5282,512,7,128108,117950
5284,512,7,128099,117947
5286,512,7,128111,117958
5289,513,7,128106,117953
5292,513,7,128121,117959
5295,513,7,128126,117962
5297,513,7,128130,117963
5300,513,7,128136,117959
5302,514,7,128145,117963
5305,514,7,128147,117966
5307,514,7,128140,117967
5309,515,7,128147,117971
5312,516,7,128140,117976
5314,517,7,128151,117975
5317,518,7,128156,117982
5319,517,7,128161,117986
5322,518,7,128165,117971
5324,518,7,128174,117981
5326,518,7,128178,117981
5329,518,7,128181,117988
5331,518,7,128180,117987
5335,518,7,128182,117988
5337,518,7,128187,117993
5340,517,7,128190,117990
5342,516,7,128191,117990
5345,516,7,128202,117997
5347,516,7,128201,117993
5349,516,7,128202,117995
5352,515,7,128208,117996
5354,514,7,128213,118001
5357,513,7,128215,118010
5359,512,7,128214,118001
5362,510,8,128226,118005
5364,510,7,128227,118004
5366,509,7,128226,118009
5369,507,7,128244,118013
5371,507,7,128240,118010
5374,506,7,128245,118013
5377,506,7,128240,118008
5380,507,7,128250,118011
5382,507,7,128261,118021
5385,508,7,128261,118018
5387,508,7,128264,118020
5389,508,7,128279,118016
5392,508,7,128266,118025
5394,508,7,128278,118021
5397,508,7,128278,118032
5399,507,7,128289,118032
5402,507,7,128288,118032
5404,508,7,128302,118030
5406,508,7,128293,118036
5409,508,7,128295,118034
5411,508,7,128295,118038
5414,509,7,128308,118039
5416,509,7,128316,118043
5420,508,7,128316,118037
5422,507,7,128319,118040
5425,507,7,128317,118040
5427,507,7,128332,118053
5429,506,7,128334,118046
5432,501,7,128337,118053
5434,497,7,128337,118051
5437,491,7,128345,118049
5439,486,7,128344,118062
5442,485,7,128344,118060
5444,491,7,128356,118058
5446,499,7,128363,118058
5449,525,7,128371,118066
5451,538,7,128371,118067
5454,560,7,128377,118070
5456,579,7,128382,118070
5459,602,7,128394,118072
5462,639,8,128396,118066
5465,655,8,128402,118080
5467,690,8,128408,118078
5469,704,8,128402,118078
5472,739,8,128407,118083
5474,749,8,128407,118085
5477,754,8,128424,118081
5479,749,8,128431,118081
5482,730,8,128441,118089
5484,671,8,128437,118089
5486,631,8,128437,118090
5489,595,8,128448,118090
5491,553,8,128460,118095
5494,515,8,128456,118096
5496,468,8,128456,118110
5499,446,8,128466,118109
5501,434,8,128482,118109
5505,425,8,128488,118113
5507,421,8,128488,118113
5509,422,8,128494,118107
5512,425,7,128489,118107
5514,430,8,128504,118117
5517,434,8,128511,118127
5519,444,7,128511,118123
5522,450,7,128518,118124
5524,454,7,128524,118124
5526,457,7,128537,118127
5529,462,7,128532,118126
5531,464,7,128539,118126
5534,467,7,128539,118131
5536,469,7,128542,118135
5539,471,7,128562,118135
5541,475,8,128562,118139
5544,477,7,128570,118147
5547,477,7,128575,118147
5549,478,7,128581,118146
5552,479,7,128581,118149
5554,480,7,128594,118151
5557,482,7,128590,118151
5559,483,7,128600,118150
5562,487,7,128600,118164
5564,488,7,128610,118164
5566,489,7,128612,118169
5569,490,7,128612,118167
5571,490,7,128624,118169
5574,491,7,128644,118169
5576,491,7,128639,118178
5579,493,7,128639,118182
5581,495,7,128642,118182
5584,496,7,128653,118182
5586,497,7,128663,118186
5588,498,7,128674,118187
5592,500,7,128674,118191
5594,501,7,128679,118193
5597,501,7,128677,118193
5599,501,7,128693,118198
5602,503,7,128693,118202
5604,505,7,128695,118198
5606,506,7,128703,118198
5609,506,7,128717,118206
5611,507,7,128721,118213
5614,507,7,128721,118213
5616,508,7,128735,118210
5619,509,7,128736,118219
5621,509,7,128741,118226
5624,510,7,128741,118225
5626,511,7,128750,118229
5628,511,7,128753,118229
5632,512,7,128752,118222
5634,513,7,128768,118233
5637,514,7,128774,118227
5639,517,7,128781,118238
5642,518,7,128789,118239
5644,520,7,128797,118248
5646,521,7,128797,118245
5649,522,7,128813,118245
5651,522,7,128806,118240
5654,521,7,128820,118243
5656,523,7,128830,118258
5659,524,7,128829,118260
5661,526,7,128831,118259
5664,527,7,128836,118253
5666,530,7,128840,118259
5668,531,7,128845,118262
5671,533,7,128849,118255
5673,535,7,128847,118264
5677,536,7,128858,118264
5679,538,7,128853,118266
5682,540,7,128861,118268
5684,544,7,128861,118263
5686,545,7,128858,118264
5689,547,7,128840,118260
5691,548,7,128838,118254
5694,549,7,128830,118248
5696,550,7,128825,118252
5699,552,7,128811,118239
5701,556,7,128787,118236
5704,558,7,128771,118229
5706,560,7,128760,118223
5708,561,7,128733,118213
5711,559,7,128712,118207
5713,558,7,128695,118198
5716,557,7,128671,118196
5719,557,7,128638,118176
5722,556,7,128617,118171
5724,556,7,128584,118164
5726,555,7,128555,118156
5729,553,8,128530,118131
5731,550,7,128506,118131
5734,547,7,128477,118125
5736,543,7,128455,118108
5739,540,7,128427,118097
5741,536,7,128391,118087
5744,532,7,128361,118075
5746,525,7,128327,118059
5748,521,7,128293,118058
5751,518,7,128268,118043
5753,513,7,128251,118032
5756,505,7,128201,118022
5758,501,7,128173,118005
5762,495,7,128159,117996
5764,487,7,128129,117981
5766,482,7,128094,117977
5769,478,7,128075,117963
5771,474,7,128054,117962
5774,466,7,128029,117951
5776,462,7,128002,117941
5779,460,7,127989,117926
5781,458,7,127970,117922
5784,457,7,127942,117920
5786,456,7,127942,117918
5788,454,7,127911,117913
5791,454,7,127899,117900
5793,453,7,127902,117896
5796,452,7,127880,117890
5798,453,7,127869,117893
5801,453,7,127855,117882
5804,453,7,127848,117883
5806,453,7,127840,117876
5809,453,7,127833,117867
5811,454,7,127827,117864
5814,454,7,127818,117865
5816,454,7,127826,117865
5819,454,7,127822,117864
5821,455,7,127816,117862
5824,456,7,127813,117860
5826,457,7,127808,117856
5828,458,7,127796,117851
5831,459,7,127807,117855
5833,462,7,127803,117851
5836,463,7,127803,117854
5838,462,7,127807,117854
5841,463,7,127813,117857
5843,463,7,127809,117858
5846,464,7,127808,117858
5849,466,7,127818,117856
5851,468,7,127820,117843
5854,469,7,127822,117857
5856,470,7,127819,117858
5859,472,7,127822,117851
5861,475,7,127828,117851
5864,475,7,127828,117849
5866,475,7,127832,117854
5868,475,7,127827,117854
5871,477,7,127843,117855
5873,479,7,127844,117850
5876,480,7,127844,117855
5878,481,7,127838,117854
5881,481,7,127851,117854
5883,481,7,127853,117858
5885,482,7,127851,117851
5889,485,7,127862,117857
5891,487,7,127862,117854
5894,489,7,127854,117855
5896,491,7,127854,117851
5899,491,7,127854,117850
5901,491,7,127859,117851
5904,492,7,127860,117851
5906,492,7,127863,117861
5908,492,7,127863,117858
5911,492,7,127869,117856
5913,492,7,127872,117856
5916,492,7,127874,117857
5918,493,7,127875,117857
5921,494,7,127881,117862
5923,495,7,127890,117861
5925,496,7,127890,117862
5928,497,7,127889,117876
5931,497,7,127895,117876
5934,497,7,127899,117861
5936,497,7,127899,117869
5939,498,7,127902,117864
5941,499,7,127907,117864
5944,499,7,127909,117865
5946,498,7,127913,117873
5948,499,7,127913,117872
5951,499,7,127918,117877
5953,500,7,127916,117877
5956,500,7,127928,117883
5958,500,7,127928,117880
5961,500,7,127930,117876
5963,500,7,127925,117876
5965,500,7,127933,117881
5968,501,7,127932,117873
5970,500,7,127932,117873
5974,500,7,127937,117877
5976,501,7,127939,117877
5979,500,7,127939,117886
5981,501,7,127939,117874
5984,501,7,127931,117870
5986,502,7,127936,117870
5988,502,7,127944,117870
5991,503,7,127932,117866
5993,503,7,127935,117866
5996,502,7,127935,117874
5998,501,7,127936,117878
6001,500,7,127929,117878
6003,501,7,127929,117871
6005,501,7,127938,117868
6008,501,7,127924,117868
6010,501,7,127920,117868
6013,501,7,127922,117872
6016,501,8,127920,117872
6019,502,7,127920,117858
6021,502,7,127911,117864
6024,503,7,127906,117864
6026,504,7,127906,117862
6028,505,7,127909,117854
6031,505,7,127892,117854
6033,504,7,127898,117860
6036,503,7,127898,117848
6038,503,7,127889,117853
6041,505,7,127883,117853
6043,506,7,127883,117853
6045,507,7,127883,117840
6048,506,7,127865,117840
6050,505,7,127865,117847
6053,505,7,127865,117848
6055,506,7,127864,117847
6059,506,7,127866,117847
6061,505,7,127856,117844
6064,505,7,127856,117839
6066,505,7,127860,117839
6068,506,7,127852,117839
6071,506,7,127855,117835
6073,506,7,127845,117848
6076,505,7,127845,117839
6078,505,7,127856,117835
6081,506,8,127849,117835
6083,505,7,127851,117844
6085,506,7,127851,117844
6088,506,7,127860,117833
6090,506,7,127851,117833
6093,506,7,127852,117843
6095,507,7,127851,117850
6098,507,7,127849,117840
6100,507,7,127863,117841
6104,507,7,127874,117844
6106,507,7,127874,117848
6108,507,7,127869,117848
6111,507,7,127868,117844
6113,507,7,127875,117842
6116,506,7,127880,117857
6118,506,7,127898,117850
6121,506,7,127885,117856
6123,507,7,127886,117859
6125,507,7,127890,117854
6128,507,7,127904,117861
6130,507,7,127893,117854
6133,507,7,127904,117866
6135,507,7,127917,117858
6138,508,7,127923,117868
6140,508,7,127931,117865
6144,509,7,127936,117868
6146,510,7,127932,117875
6148,511,7,127945,117875
6151,512,7,127942,117880
6153,512,7,127954,117882
6156,512,7,127956,117884
6158,512,7,127963,117882
6161,512,7,127963,117888
6163,513,7,127970,117883
6165,513,7,127976,117894
6168,514,7,127996,117893
6170,514,7,128004,117894
6173,515,7,128002,117894
6175,515,7,128004,117895
6178,515,7,128014,117905
6180,515,7,128018,117908
6183,515,7,128022,117908
6185,517,8,128022,117906
6188,518,7,128026,117905
6191,519,7,128030,117906
6193,520,7,128047,117910
6196,522,7,128055,117916
6198,520,7,128063,117917
6201,519,7,128058,117920
6203,517,7,128054,117917
6205,516,7,128078,117928
6208,514,7,128071,117925
6210,513,7,128078,117933
6213,514,7,128091,117930
6215,513,7,128101,117931
6218,514,7,128108,117937
6220,513,7,128108,117938
6223,512,7,128115,117945
6225,510,7,128126,117946
6227,508,7,128128,117946
6231,506,7,128131,117944
6233,505,7,128132,117961
6236,505,7,128142,117949
6238,505,7,128147,117954
6241,505,7,128148,117953
6243,505,7,128156,117960
6245,505,7,128163,117965
6248,504,7,128160,117963
6250,504,7,128170,117969
6253,504,7,128176,117974
6255,505,7,128188,117971
6258,504,7,128185,117968
6260,504,7,128192,117975
6263,503,7,128193,117979
6265,503,7,128202,117976
6267,504,7,128202,117978
6270,505,7,128206,117993
6273,505,7,128211,117970
6276,505,7,128213,117985
6278,505,7,128224,117995
6281,506,7,128228,117992
6283,506,7,128225,117991
6285,506,7,128231,117995
6288,506,7,128239,118001
6290,506,7,128240,118002
6293,505,7,128250,117998
6295,504,7,128247,118001
6298,505,7,128255,117996
6300,505,7,128265,118005
6303,504,7,128263,117988
6305,498,7,128265,118009
6307,492,7,128278,118014
6310,488,7,128279,118021
6312,485,7,128280,118012
6316,487,7,128282,118016
6318,499,7,128291,118024
6321,508,7,128289,118014
6323,532,7,128294,118022
6325,548,7,128294,118028
6328,572,7,128297,118022
6330,605,7,128298,118024
6333,625,7,128312,118023
6335,651,7,128309,118028
6338,669,8,128316,118027
6340,707,7,128318,118033
6343,723,8,128318,118031
6345,741,8,128334,118041
6347,750,8,128338,118041
6350,745,8,128341,118037
6352,726,8,128344,118038
6355,702,7,128344,118041
6358,661,8,128351,118052
6361,627,8,128356,118052
6363,547,8,128361,118051
6365,516,8,128361,118049
6368,481,8,128371,118053
6370,462,8,128364,118053
6373,443,8,128379,118052
6375,424,8,128384,118056
6378,420,7,128384,118056
6380,419,7,128382,118052
6383,420,7,128389,118052
6385,426,8,128403,118069
6387,431,7,128403,118067
6390,438,7,128404,118065
6392,443,7,128401,118065
6395,447,7,128419,118068
6397,454,7,128415,118066
6401,457,7,128419,118075
6403,463,8,128419,118074
6405,466,7,128428,118085
6408,469,7,128428,118082
6410,471,7,128438,118082
6413,476,7,128438,118079
6415,478,7,128438,118088
6418,479,7,128456,118083
6420,480,7,128456,118083
6423,482,7,128469,118093
6425,483,7,128469,118092
6427,485,7,128469,118100
6430,485,7,128466,118096
6432,486,7,128466,118097
6435,487,7,128472,118092
6437,488,7,128494,118092
6440,489,7,128499,118102
6443,492,7,128498,118108
6445,492,7,128510,118108
6448,494,7,128510,118114
6450,495,7,128506,118110
6453,496,7,128523,118114
6455,497,8,128523,118118
6458,498,7,128531,118118
6460,499,7,128531,118128
6463,500,7,128536,118130
6465,502,7,128544,118130
6467,502,7,128563,118123
6470,504,7,128561,118128
6472,505,7,128568,118128
6475,505,7,128568,118133
6477,505,7,128572,118139
6480,505,7,128579,118139
6482,508,7,128579,118140
6484,509,7,128593,118140
6488,510,7,128607,118140
6490,511,7,128605,118150
6493,513,7,128605,118158
6495,513,7,128623,118158
6498,513,7,128623,118158
6500,514,7,128625,118163
6503,515,7,128634,118163
6505,516,7,128634,118167
6507,516,7,128648,118160
6510,517,7,128647,118164
6512,517,7,128647,118169
6515,518,7,128664,118174
6517,520,7,128666,118172
6520,521,7,128666,118172
6522,523,7,128697,118176
6524,526,8,128697,118187
6528,527,7,128701,118187
6530,528,7,128703,118195
6533,531,7,128703,118194
6535,533,7,128706,118192
6538,535,7,128725,118192
6540,536,7,128715,118200
6543,537,8,128715,118199
6545,538,7,128737,118201
6547,540,7,128729,118201
6550,541,7,128737,118207
6552,542,7,128737,118211
6555,544,7,128728,118199
6557,547,7,128738,118192
6560,549,7,128728,118200
6562,550,7,128725,118199
6564,551,7,128725,118196
6567,556,7,128719,118194
6569,559,7,128701,118194
6573,560,8,128690,118185
6575,560,7,128678,118177
6578,559,7,128658,118173
6580,558,8,128647,118165
6583,558,8,128599,118157
6585,558,7,128567,118144
6587,559,7,128567,118132
6590,559,7,128545,118132
6592,560,7,128513,118118
6595,559,7,128494,118114
6597,558,8,128464,118096
6600,556,8,128436,118093
6602,552,8,128414,118072
6604,549,7,128382,118068
6607,546,8,128349,118058
6609,543,8,128316,118037
6612,539,8,128288,118030
6615,532,8,128248,118015
6618,527,7,128219,118008
6620,524,7,128188,117987
6623,519,7,128162,117981
6625,509,7,128135,117972
6627,504,7,128097,117958
6630,499,7,128074,117949
6632,494,8,128030,117934
6635,489,7,128011,117917
6637,482,7,127970,117912
6640,479,7,127940,117906
6642,476,7,127914,117887
6644,472,7,127883,117877
6647,466,7,127858,117867
6649,464,7,127839,117857
6652,461,7,127806,117842
6654,459,7,127783,117840
6658,458,7,127765,117819
6660,457,7,127739,117822
6663,457,7,127713,117812
6665,457,7,127712,117807
6667,456,7,127688,117799
6670,455,7,127678,117798
6672,455,7,127668,117787
6675,455,7,127654,117787
6677,456,7,127640,117780
6680,457,7,127629,117782
6682,457,7,127611,117776
6684,457,7,127608,117771
6687,457,7,127594,117763
6689,458,7,127586,117768
6692,458,7,127586,117755
6694,459,7,127578,117755
6697,461,7,127575,117751
6700,462,7,127570,117749
6703,464,7,127563,117740
6705,465,7,127554,117745
6707,466,7,127556,117737
6710,467,7,127549,117741
6712,467,7,127544,117737
6715,467,7,127546,117744
6717,468,7,127541,117744
6720,469,7,127549,117737
6722,471,7,127543,117734
6724,473,7,127542,117728
6727,477,7,127545,117735
6729,479,7,127547,117739
6732,480,7,127543,117737
6734,481,7,127546,117732
6737,481,7,127543,117738
6739,480,7,127549,117731
6743,480,7,127551,117739
6745,481,7,127557,117738
6747,482,7,127544,117738
6750,484,7,127547,117736
6752,486,7,127544,117739
6755,486,7,127552,117741
6757,488,7,127560,117739
6760,489,7,127556,117738
6762,489,7,127567,117742
6764,491,7,127560,117740
6767,493,7,127558,117741
6769,494,7,127563,117742
6772,494,7,127564,117739
6774,495,7,127557,117747
6777,495,7,127564,117739
6779,497,7,127568,117743
6782,498,7,127568,117735
6785,499,7,127564,117739
6787,500,7,127575,117739
6790,500,7,127570,117741
6792,500,7,127576,117735
6795,499,7,127576,117743
6797,499,7,127573,117744
6800,499,7,127579,117744
6802,499,7,127584,117745
6804,499,7,127588,117743
6807,500,7,127590,117750
6809,500,7,127601,117757
6812,500,7,127609,117753
6814,502,7,127613,117755
6817,502,7,127613,117745
6819,503,7,127613,117752
6822,503,7,127618,117752
6824,501,7,127628,117759
6827,500,7,127622,117756
6830,501,7,127627,117762
6832,502,7,127627,117753
6835,502,7,127620,117755
6837,504,7,127625,117750
6840,505,7,127625,117758
6842,505,7,127638,117764
6844,505,7,127634,117764
6847,504,7,127635,117765
6849,503,7,127635,117754
6852,502,7,127634,117766
6854,502,7,127636,117766
6857,502,7,127642,117758
6859,502,7,127639,117769
6862,503,7,127637,117768
6864,505,7,127635,117759
6866,505,7,127636,117759
6870,505,7,127633,117765
6872,504,7,127633,117772
6875,503,7,127637,117768
6877,503,7,127622,117768
6880,503,7,127633,117763
6882,504,7,127617,117762
6884,505,7,127617,117762
6887,506,7,127623,117761
6889,507,7,127613,117761
6892,507,7,127613,117759
6894,508,7,127613,117756
6897,507,7,127601,117758
6899,507,7,127599,117758
6902,506,7,127601,117757
6904,506,7,127599,117747
6906,507,7,127599,117749
6909,508,7,127581,117752
6912,508,7,127571,117752
6915,508,7,127569,117747
6917,506,7,127569,117743
6920,505,7,127561,117737
6922,505,7,127560,117737
6924,504,7,127563,117735
6927,505,7,127555,117733
6929,505,7,127549,117733
6932,507,7,127549,117738
6934,508,7,127551,117731
6937,509,7,127534,117731
6939,510,7,127534,117732
6942,511,7,127549,117727
6944,512,7,127524,117727
6946,512,7,127537,117728
6949,513,7,127538,117736
6951,514,7,127535,117736
6955,514,7,127535,117731
6957,515,7,127540,117734
6960,515,7,127536,117734
6962,514,7,127536,117736
6964,515,7,127547,117735
6967,516,7,127542,117735
6969,518,7,127543,117729
6972,519,8,127543,117735
6974,519,7,127545,117735
6977,520,7,127545,117740
6979,520,7,127550,117744
6982,520,7,127549,117744
6984,520,7,127549,117739
6986,518,7,127554,117744
6989,518,7,127563,117744
6991,515,7,127563,117744
6994,514,7,127569,117753
6996,514,7,127571,117749
7000,515,7,127569,117749
7002,514,7,127591,117757
7004,513,7,127591,117759
7007,512,7,127592,117759
7009,510,7,127592,117765
7012,507,7,127600,117772
7014,506,7,127611,117773
7017,506,7,127610,117773
7019,505,7,127631,117778
7022,505,7,127631,117781
7024,504,7,127629,117783
7026,504,7,127644,117784
7029,503,7,127647,117786
7031,503,7,127647,117793
7034,504,7,127658,117795
7036,504,7,127665,117791
7040,504,7,127664,117791
7042,503,7,127673,117799
7044,503,7,127678,117801
7047,503,7,127696,117801
7049,504,7,127695,117807
7052,504,7,127712,117807
7054,505,7,127712,117818
7057,505,7,127714,117818
7059,506,7,127716,117815
7062,507,7,127736,117816
7064,507,7,127736,117831
7066,506,7,127742,117833
7069,505,7,127754,117838
7071,505,7,127763,117839
7074,505,8,127767,117836
7076,504,7,127776,117837
7079,504,7,127769,117834
7081,503,7,127780,117845
7084,503,7,127786,117847
7087,498,7,127793,117852
7089,494,7,127808,117848
7092,490,7,127795,117856
7094,486,7,127812,117855
7097,485,7,127822,117861
7099,496,7,127834,117867
7102,505,7,127850,117874
7104,518,7,127840,117875
7106,531,7,127849,117874
7109,552,7,127845,117879
7111,589,7,127855,117878
7114,612,7,127859,117875
7116,632,7,127865,117883
7119,658,7,127879,117890
7121,683,7,127885,117888
7123,707,7,127892,117895
7127,742,7,127895,117894
7129,752,7,127900,117890
7132,757,8,127905,117896
7134,752,8,127905,117905
7137,731,7,127906,117900
7139,676,8,127908,117908
7142,635,8,127913,117911
7144,591,8,127921,117904
7146,549,8,127928,117913
7149,506,8,127940,117913
7151,473,8,127945,117916
7154,448,7,127940,117917
7156,424,8,127950,117921
7159,420,7,127947,117930
7161,418,7,127958,117923
7163,420,7,127963,117927
7166,428,7,127958,117924
7169,433,7,127965,117928
7172,438,7,127971,117932
7174,443,7,127971,117927
7177,448,7,127981,117928
7179,454,7,127985,117932
7182,457,7,127989,117930
7184,461,7,127985,117937
7186,463,7,127990,117940
7189,466,7,127994,117947
7191,470,7,127995,117944
7194,472,7,128010,117952
7196,474,7,128016,117951
7199,476,7,128007,117944
7201,478,7,128014,117954
7203,480,7,128018,117955
7206,482,7,128028,117963
7208,483,7,128030,117958
7212,483,7,128025,117958
7214,485,7,128031,117964
7217,487,7,128036,117968
7219,489,7,128041,117971
7222,491,7,128049,117964
7224,492,7,128045,117975
7226,493,7,128056,117976
7229,494,7,128053,117974
7231,496,7,128063,117976
7234,496,7,128066,117983
7236,496,7,128069,117983
7239,498,7,128076,117989
7241,499,7,128092,117993
7243,500,7,128081,117992
7246,500,7,128088,117989
7248,501,7,128097,117986
7251,501,7,128102,117996
7254,502,7,128102,117999
7257,503,7,128108,117997
7259,505,7,128120,118005
7262,506,7,128118,118005
7264,507,7,128127,118004
7266,508,7,128134,118006
7269,510,7,128142,118014
7271,510,7,128144,118012
7274,511,7,128144,118015
7276,512,7,128155,118016
7279,512,7,128157,118016
7281,513,7,128177,118029
7283,514,7,128169,118014
7286,515,7,128172,118028
7288,515,7,128172,118039
7291,516,7,128196,118035
7293,518,7,128199,118043
7297,519,7,128199,118042
7299,520,7,128208,118045
7302,522,7,128219,118045
7304,523,7,128229,118056
7306,524,7,128221,118053
7309,526,7,128225,118047
7311,527,7,128225,118054
7314,530,7,128232,118056
7316,532,7,128237,118059
7319,534,7,128237,118060
7321,535,7,128247,118057
7323,537,7,128245,118057
7326,539,7,128266,118064
7328,540,7,128266,118067
7331,541,7,128256,118060
7333,543,7,128249,118060
7336,544,7,128255,118057
7339,547,7,128250,118057
7342,549,8,128229,118060
7344,552,7,128230,118051
7346,553,8,128208,118051
7349,556,8,128199,118036
7351,556,8,128199,118032
7354,557,7,128189,118024
7356,558,7,128136,118024
7359,558,7,128118,118016
7361,560,8,128091,117993
7363,561,7,128091,117990
7366,561,7,128039,117990
7368,561,8,128010,117983
7371,561,7,127978,117961
7373,560,8,127978,117944
7376,558,7,127946,117938
7378,557,7,127892,117938
7382,555,7,127864,117932
7384,553,7,127864,117897
7386,550,7,127829,117890
7389,548,8,127752,117890
7391,544,8,127725,117880
7394,541,8,127691,117873
7396,533,7,127691,117832
7399,528,8,127612,117823
7401,524,7,127580,117823
7403,519,7,127548,117810
7406,510,7,127507,117778
7408,506,8,127466,117778
7411,498,7,127466,117751
7413,492,7,127436,117742
7416,489,8,127368,117742
7418,483,7,127368,117712
7421,478,7,127338,117697
7424,475,7,127269,117697
7426,472,7,127250,117698
7429,466,7,127250,117667
7431,464,7,127222,117659
7434,462,8,127163,117659
7436,460,7,127147,117648
7439,458,7,127147,117624
7441,457,7,127090,117624
7443,455,7,127077,117622
7446,454,7,127077,117611
7448,453,7,127058,117607
7451,453,7,127029,117607
7453,453,7,127016,117595
7456,455,7,127016,117580
7458,455,7,127002,117580
7461,455,7,126990,117580
7463,456,7,126973,117579
7465,456,7,126957,117576
7469,458,7,126957,117567
7471,459,7,126957,117566
7474,460,7,126925,117566
7476,460,7,126926,117559
7479,461,7,126926,117552
7481,463,7,126917,117552
7483,464,7,126916,117552
7486,465,7,126912,117550
7488,466,7,126912,117548
7491,467,7,126901,117547
7493,469,7,126908,117547
7496,470,7,126895,117540
7498,470,7,126890,117546
7501,471,7,126890,117547
7503,472,7,126903,117540
7505,474,7,126892,117540
7508,475,7,126890,117546
7511,476,7,126892,117549
7514,477,7,126890,117541
7516,479,7,126890,117544
7519,480,7,126892,117547
7521,480,7,126893,117551
7523,481,7,126893,117548
7526,482,7,126893,117548
7528,483,7,126882,117539
7531,485,7,126894,117544
7533,487,7,126893,117544
7536,488,7,126885,117537
7538,489,7,126882,117541
7541,490,7,126877,117544
7543,491,7,126884,117541
7545,493,7,126865,117539
7548,494,7,126868,117536
7550,495,7,126876,117538
7554,496,7,126874,117540
7556,498,7,126873,117539
7559,498,7,126862,117540
7561,499,7,126862,117527
7563,499,7,126856,117537
7566,500,7,126866,117539
7568,500,7,126859,117541
7571,500,7,126849,117540
7573,500,7,126862,117537
7576,500,7,126853,117541
7578,501,7,126872,117542
7581,501,7,126871,117541
7583,502,7,126867,117545
7585,503,7,126866,117545
7588,503,7,126879,117548
7590,504,7,126881,117551
7593,505,7,126880,117553
7596,506,7,126881,117549
7599,506,7,126883,117556
7601,506,7,126893,117556
7603,505,7,126903,117557
7606,506,7,126905,117560
7608,505,7,126909,117562
7611,505,7,126908,117561
7613,506,7,126909,117563
7616,506,7,126907,117572
7618,507,7,126925,117565
7621,507,7,126910,117571
7623,507,7,126921,117565
7625,507,7,126923,117570
7628,507,7,126921,117576
7630,506,7,126924,117574
7633,507,7,126930,117581
7635,507,7,126930,117573
7639,508,7,126926,117576
7641,508,7,126936,117580
7643,508,7,126926,117585
7646,508,7,126938,117584
7648,508,7,126938,117593
7651,508,7,126942,117584
7653,508,7,126943,117578
7656,509,7,126945,117578
7658,509,7,126943,117583
7661,509,7,126942,117582
7663,509,7,126940,117594
7665,509,7,126949,117586
7668,509,7,126934,117587
7670,509,7,126935,117586
7673,510,7,126938,117589
7675,510,7,126932,117589
7678,511,7,126933,117593
7681,511,7,126936,117590
7683,512,7,126923,117587
7686,512,7,126921,117586
7688,513,7,126929,117585
7691,512,7,126919,117593
7693,512,7,126918,117587
7696,512,7,126913,117585
7698,511,7,126917,117587
7701,511,7,126907,117585
7703,511,7,126905,117585
7705,511,7,126908,117583
7708,511,7,126903,117587
7710,512,7,126903,117586
7713,512,7,126905,117595
7715,513,7,126906,117576
7718,513,7,126903,117583
7720,513,7,126905,117590
7723,513,7,126893,117582
7726,513,7,126904,117587
7728,513,7,126896,117588
7731,514,7,126900,117587
7733,515,7,126903,117581
7736,515,7,126903,117591
7738,515,7,126901,117590
7741,515,7,126900,117590
7743,514,7,126906,117593
7745,515,7,126911,117594
7748,515,7,126909,117593
7750,515,7,126904,117594
7753,515,7,126918,117602
7755,515,7,126930,117604
7758,515,7,126930,117597
7760,515,7,126932,117608
7762,515,7,126937,117608
7766,515,7,126943,117613
7768,515,7,126944,117612
7771,516,7,126944,117621
7773,516,7,126944,117617
7776,516,8,126959,117624
7778,517,7,126962,117625
7781,517,7,126962,117627
7783,517,7,126976,117630
7785,517,7,126982,117630
7788,516,7,126994,117640
7790,517,7,126994,117645
7793,517,7,127003,117646
7795,517,7,127007,117646
7798,518,7,127029,117648
7800,518,7,127035,117656
7802,518,7,127035,117665
7805,518,7,127041,117666
7808,518,7,127046,117666
7811,518,7,127058,117673
7813,519,7,127058,117677
7816,519,7,127070,117682
7818,519,7,127086,117682
7821,518,7,127097,117680
7823,518,7,127102,117691
7825,518,7,127102,117704
7828,519,7,127119,117696
7830,519,7,127123,117696
7833,519,7,127137,117706
7835,521,7,127137,117704
7838,521,7,127148,117712
7840,522,7,127160,117712
7842,522,7,127174,117713
7845,523,7,127174,117721
7847,524,7,127185,117721
7851,524,7,127189,117727
7853,525,7,127189,117737
7856,525,7,127200,117741
7858,525,7,127210,117741
7861,524,7,127231,117749
7863,525,7,127231,117754
7865,526,7,127236,117752
7868,526,7,127250,117752
7870,527,7,127269,117764
7873,527,7,127258,117760
7875,527,7,127258,117769
7878,528,7,127282,117771
7880,529,7,127288,117771
7882,530,7,127304,117778
7885,529,7,127304,117777
7887,528,7,127303,117787
7890,527,7,127314,117787
7892,526,7,127333,117793
7896,524,7,127333,117799
7898,523,7,127345,117799
7901,522,7,127362,117808
7903,522,7,127362,117808
7905,521,7,127362,117816
7908,521,7,127365,117816
7910,520,7,127375,117818
7913,518,7,127375,117821
7915,517,8,127388,117822
7918,517,7,127394,117822
7920,516,7,127412,117825
7922,516,7,127410,117834
7925,514,7,127410,117838
7927,514,7,127412,117838
7930,514,7,127429,117838
7932,514,7,127429,117838
7936,514,7,127429,117848
7938,514,7,127435,117846
7941,514,7,127435,117846
7943,514,7,127459,117852
7945,514,7,127458,117860
7948,514,7,127458,117858
7950,514,7,127472,117867
7953,514,8,127477,117867
7955,514,7,127480,117875
7958,515,7,127480,117867
7960,515,7,127484,117874
7962,515,7,127492,117874
7965,515,7,127490,117884
7967,516,7,127495,117880
7970,516,7,127505,117881
7972,516,7,127515,117887
7975,516,8,127526,117896
7977,516,7,127531,117892
7981,516,7,127531,117903
7983,515,7,127543,117899
7985,515,7,127543,117899
7988,513,7,127549,117906
7990,511,7,127557,117908
7993,507,7,127562,117909
7995,498,7,127571,117919
7998,494,7,127584,117917
8000,493,7,127588,117919
8002,495,7,127588,117924
8005,502,7,127604,117924
8007,518,7,127603,117924
8010,534,7,127611,117928
8012,567,7,127615,117934
8015,587,7,127622,117936
8017,606,7,127631,117943
8020,628,7,127634,117940
8023,673,7,127643,117948
8025,697,8,127647,117952
8028,717,7,127643,117951
8030,740,8,127660,117951
8033,760,8,127672,117960
8035,779,8,127676,117963
8038,773,8,127680,117961
8040,753,8,127690,117962
8042,728,8,127683,117967
8045,681,8,127691,117976
8047,630,8,127695,117976
8050,539,8,127706,117979
8052,499,8,127714,117984
8055,470,7,127719,117990
8057,446,8,127728,117984
8060,431,7,127742,117990
8062,422,8,127740,117983
8065,423,8,127734,117998
8068,426,7,127747,118004
8070,431,8,127761,118003
8073,437,8,127771,118006
8075,446,7,127782,118009
8078,451,8,127787,118020
8080,456,8,127787,118014
8082,460,7,127798,118009
8085,466,8,127790,118022
8087,468,7,127794,118025
8090,469,7,127804,118018
8092,471,7,127829,118023
8095,474,7,127827,118026
8097,477,7,127832,118028
8100,479,8,127832,118036
8102,481,7,127851,118040
8104,483,7,127860,118045
8108,485,7,127859,118043
8110,487,7,127861,118047
8113,488,7,127872,118049
8115,488,7,127879,118058
8118,489,7,127881,118057
8120,490,7,127886,118064
8122,491,7,127893,118060
8125,494,7,127898,118064
8127,495,7,127905,118071
8130,495,7,127919,118085
8132,496,7,127928,118079
8135,497,7,127937,118085
8137,499,7,127936,118086
8140,500,7,127945,118087
8142,501,7,127956,118098
8144,502,7,127962,118100
8147,502,7,127973,118102
8150,503,7,127972,118107
8153,504,7,127983,118106
8155,505,7,127981,118112
8158,507,7,127990,118114
8160,507,7,128002,118106
8162,508,7,127999,118115
8165,509,7,128020,118125
8167,510,7,128033,118124
8170,510,7,128032,118127
8172,511,7,128044,118135
8175,512,7,128044,118133
8177,514,7,128049,118139
8180,515,7,128066,118140
8182,515,7,128079,118144
8184,516,7,128075,118150
8187,517,7,128077,118151
8189,518,7,128099,118152
8193,519,7,128099,118157
8195,520,7,128111,118161
8198,521,7,128114,118161
8200,523,7,128131,118178
8202,524,7,128135,118173
8205,525,7,128139,118174
8207,526,7,128144,118172
8210,527,7,128149,118177
8212,528,7,128159,118179
8215,530,7,128159,118174
8217,531,7,128175,118180
8220,532,7,128175,118185
8222,533,7,128174,118185
8224,535,7,128160,118182
8227,536,7,128170,118181
8229,537,7,128154,118173
8232,538,7,128144,118180
8235,541,7,128130,118165
8238,542,7,128130,118153
8240,544,7,128089,118152
8242,546,7,128062,118152
8245,548,7,128057,118141
8247,550,7,128016,118120
8250,552,7,127991,118109
8252,553,7,127991,118100
8255,554,7,127921,118092
8257,555,7,127891,118080
8260,556,7,127891,118062
8262,557,7,127819,118046
8264,558,7,127788,118046
8267,558,8,127748,118027
8269,559,8,127748,118006
8272,559,7,127661,117991
8274,559,7,127632,117991
8278,558,7,127582,117980
8280,557,7,127543,117944
8282,556,7,127495,117944
8285,554,8,127446,117913
8287,553,7,127446,117898
8290,550,7,127361,117886
8292,548,8,127316,117886
8295,545,7,127278,117846
8297,539,7,127278,117829
8300,536,7,127232,117808
8302,530,7,127145,117797
8304,526,8,127145,117781
8307,520,7,127063,117767
8309,516,8,127030,117767
8312,511,8,126994,117748
8314,501,8,126994,117725
8317,495,7,126926,117711
8320,492,7,126892,117711
8322,488,8,126873,117701
8325,480,8,126844,117679
8327,477,8,126812,117679
8330,473,8,126793,117661
8332,467,7,126793,117650
8335,464,8,126747,117650
8337,459,7,126747,117636
8340,457,7,126736,117635
8342,455,7,126696,117635
8344,454,7,126690,117625
8347,451,7,126676,117611
8349,450,8,126662,117611
8352,448,7,126662,117603
8354,448,7,126653,117599
8357,448,7,126627,117599
8359,448,7,126627,117588
8361,448,7,126628,117593
8365,449,7,126614,117593
8367,449,7,126614,117583
8370,450,7,126614,117578
8372,450,7,126595,117578
8375,452,7,126595,117572
8377,453,7,126595,117570
8380,454,7,126578,117570
8382,456,7,126578,117574
8384,457,7,126583,117570
8387,459,7,126568,117572
8389,459,7,126568,117568
8392,460,7,126567,117570
8394,461,7,126558,117564
8397,462,7,126549,117564
8399,462,7,126557,117563
8401,464,7,126557,117563
8404,465,7,126537,117563
8407,466,7,126535,117562
8410,467,7,126535,117555
8412,468,7,126533,117555
8415,469,7,126517,117553
8417,470,7,126521,117552
8420,472,7,126521,117550
8422,472,7,126516,117542
8424,473,7,126508,117542
8427,474,7,126495,117545
8429,474,7,126495,117543
8432,475,7,126484,117534
8434,476,7,126484,117538
8437,477,7,126456,117530
8439,478,7,126456,117528
8441,479,7,126456,117520
8444,480,7,126451,117525
8446,481,7,126431,117525
8450,481,7,126426,117517
8452,482,7,126417,117513
8455,483,7,126417,117510
8457,483,7,126409,117504
8460,484,7,126398,117506
8462,484,7,126387,117511
8464,484,7,126387,117500
8467,484,7,126376,117500
8469,486,7,126365,117497
8472,486,7,126368,117501
8474,487,7,126364,117489
8477,488,7,126361,117493
8479,490,7,126367,117500
8481,490,7,126353,117490
8484,490,7,126356,117495
8486,490,7,126347,117485
8489,490,7,126355,117492
8492,491,7,126341,117487
8495,491,7,126349,117497
8497,492,7,126355,117486
8500,492,7,126362,117492
8502,492,7,126357,117489
8504,493,7,126355,117492
8507,493,7,126364,117501
8509,493,7,126362,117505
8512,493,7,126375,117505
8514,494,7,126367,117507
8517,495,7,126374,117506
8519,495,7,126377,117505
8521,495,7,126375,117506
8524,495,7,126386,117512
8526,495,7,126387,117510
8529,495,7,126380,117512
8531,494,7,126386,117506
8535,494,7,126398,117514
8537,494,7,126390,117511
8540,495,7,126398,117519
8542,495,7,126404,117521
8544,495,7,126413,117525
8547,495,7,126414,117526
8549,494,7,126414,117532
8552,494,7,126415,117533
8554,494,7,126427,117530
8557,494,7,126423,117528
8559,495,7,126425,117524
8561,495,7,126415,117538
8564,495,7,126431,117537
8566,495,7,126431,117539
8569,495,7,126428,117537
8571,495,7,126435,117539
8574,496,7,126434,117548
8577,496,7,126428,117546
8580,496,7,126442,117545
8582,496,7,126437,117549
8584,496,7,126436,117551
8587,496,7,126441,117551
8589,496,7,126440,117537
8592,496,7,126441,117549
8594,496,7,126435,117555
8597,496,7,126436,117548
8599,496,7,126434,117548
8601,497,7,126439,117547
8604,498,7,126430,117552
8606,498,7,126436,117550
8609,498,7,126431,117556
8611,498,7,126439,117561
8614,498,7,126437,117550
8616,498,7,126436,117556
8620,498,7,126434,117550
8622,498,7,126435,117558
8624,498,7,126440,117558
8627,498,7,126434,117554
8629,498,7,126441,117559
8632,498,7,126438,117562
8634,498,7,126449,117567
8637,498,7,126446,117564
8639,498,7,126451,117570
8641,499,7,126455,117565
8644,499,7,126455,117567
8646,499,7,126459,117573
8649,499,7,126458,117575
8651,500,7,126463,117571
8654,500,7,126464,117573
8656,500,7,126465,117578
8659,500,7,126471,117580
8662,500,7,126482,117584
8664,500,7,126488,117588
8667,500,7,126496,117595
8669,500,7,126492,117592
8672,500,7,126503,117596
8674,500,7,126503,117592
8677,500,7,126503,117598
8679,500,7,126512,117594
8681,500,7,126519,117594
8684,500,7,126538,117608
8686,500,7,126541,117605
8689,500,7,126551,117615
8691,500,7,126557,117618
8694,500,7,126555,117623
8696,501,7,126571,117629
8699,500,7,126571,117623
8701,501,7,126580,117628
8704,501,7,126589,117628
8707,501,7,126597,117639
8709,501,7,126610,117640
8712,500,7,126610,117644
8714,500,7,126629,117651
8717,500,7,126634,117651
8719,501,7,126641,117656
8721,501,7,126641,117665
8724,501,7,126659,117665
8726,501,7,126669,117665
8729,502,7,126679,117680
8731,502,7,126682,117679
8734,501,7,126682,117683
8736,501,7,126695,117683
8739,501,7,126710,117683
8741,501,7,126710,117692
8743,501,7,126710,117693
8747,501,7,126735,117697
8749,501,7,126738,117697
8752,501,7,126759,117707
8754,502,7,126765,117708
8757,502,7,126779,117724
8759,502,7,126779,117729
8761,502,7,126782,117730
8764,502,7,126793,117731
8766,502,7,126806,117731
8769,504,7,126808,117738
8771,504,7,126808,117747
8774,505,7,126827,117749
8776,505,7,126839,117749
8779,504,7,126841,117750
8781,505,7,126841,117752
8783,507,7,126849,117760
8786,509,7,126863,117761
8788,510,7,126863,117766
8792,510,7,126877,117768
8794,510,7,126888,117768
8797,510,7,126896,117770
8799,509,7,126896,117779
8801,509,7,126905,117779
8804,509,7,126920,117779
8806,509,7,126931,117785
8809,509,7,126931,117797
8811,510,7,126941,117797
8814,510,7,126958,117800
8816,511,8,126958,117803
8819,511,7,126962,117808
8821,511,7,126981,117808
8823,510,7,126986,117808
8826,508,7,126986,117820
8828,507,7,126994,117821
8832,506,7,127006,117821
8834,505,7,127022,117828
8837,505,7,127022,117825
8839,505,7,127021,117825
8841,504,7,127040,117840
8844,503,7,127040,117839
8846,502,7,127048,117847
8849,501,7,127059,117847
8851,500,7,127067,117849
8854,498,7,127067,117853
8856,497,7,127069,117858
8859,497,7,127074,117858
8861,497,7,127074,117856
8863,497,7,127086,117871
8866,497,7,127096,117871
8868,497,7,127096,117867
8871,497,7,127104,117876
8873,497,7,127111,117879
8877,497,7,127120,117879
8879,497,7,127126,117883
8881,496,7,127126,117893
8884,496,7,127141,117893
8886,496,7,127141,117892
8889,497,7,127149,117894
8891,498,7,127159,117897
8894,499,7,127157,117897
8896,499,7,127162,117908
8899,499,7,127181,117903
8901,498,7,127183,117903
8903,499,7,127188,117912
8906,499,7,127202,117905
8908,498,7,127202,117918
8911,498,7,127201,117925
8913,498,7,127210,117925
8916,498,7,127217,117931
8919,498,7,127217,117937
8921,498,7,127226,117933
8924,497,7,127243,117939
8926,490,7,127245,117932
8929,486,7,127258,117938
8931,481,7,127258,117946
8934,477,7,127269,117946
8936,477,7,127267,117947
8939,486,7,127291,117954
8941,495,7,127287,117962
8943,509,7,127300,117963
8946,525,7,127309,117964
8948,560,7,127309,117968
8951,578,7,127318,117961
8953,600,7,127323,117972
8956,620,7,127322,117973
8958,668,7,127337,117977
8961,688,7,127344,117983
8964,713,7,127344,117983
8966,732,7,127356,117989
8969,754,8,127359,117990
8971,766,7,127369,117990
8974,760,8,127374,117998
8976,713,7,127377,117999
8979,679,8,127382,118000
8981,635,7,127396,118002
8983,596,8,127398,118002
8986,544,8,127396,118005
8988,474,8,127403,118012
8991,444,7,127417,118014
8993,427,7,127422,118014
8996,413,7,127426,118013
8998,408,7,127435,118019
9000,409,7,127436,118028
9004,417,7,127442,118029
9006,422,7,127448,118033
9009,427,7,127454,118028
9011,432,7,127454,118035
9014,438,7,127457,118039
9016,446,7,127469,118031
9019,449,7,127473,118043
9021,452,7,127486,118040
9023,454,7,127493,118051
9026,457,7,127505,118054
9028,461,7,127504,118066
9031,463,7,127512,118059
9033,464,7,127514,118069
9036,466,7,127521,118069
9038,468,7,127531,118075
9040,470,7,127534,118074
9043,473,7,127539,118079
9046,474,7,127542,118084
9049,475,7,127560,118081
9051,476,7,127565,118086
9054,478,7,127570,118087
9056,479,7,127578,118086
9059,480,7,127579,118090
9061,481,7,127588,118091
9063,482,7,127592,118102
9066,483,7,127594,118096
9068,485,7,127597,118102
9071,486,7,127607,118100
9073,486,7,127620,118114
9076,488,7,127628,118114
9078,490,7,127629,118115
9080,491,7,127628,118122
9083,492,7,127639,118130
9085,493,7,127652,118124
9089,494,7,127654,118129
9091,495,7,127666,118128
9094,496,7,127672,118136
9096,497,7,127675,118134
9099,498,7,127681,118149
9101,500,7,127693,118145
9103,501,7,127698,118144
9106,502,7,127699,118157
9108,503,7,127710,118155
9111,505,7,127717,118156
9113,506,7,127726,118160
9116,507,7,127738,118170
9118,508,7,127749,118170
9120,509,7,127752,118173
9123,510,7,127752,118178
9125,511,7,127766,118176
9128,511,7,127772,118176
9131,512,7,127778,118184
9134,513,7,127787,118188
9136,515,7,127799,118192
9139,516,7,127799,118191
9141,518,7,127798,118188
9143,519,7,127813,118188
9146,521,7,127818,118204
9148,522,7,127817,118196
9151,523,7,127817,118201
9153,524,7,127829,118199
9156,526,7,127821,118199
9158,528,7,127828,118196
9160,530,7,127807,118190
9163,532,7,127802,118186
9165,534,7,127802,118183
9168,535,7,127771,118179
9170,538,7,127755,118173
9174,539,7,127755,118160
9176,541,7,127722,118154
9179,543,7,127696,118154
9181,546,7,127674,118149
9183,547,7,127645,118127
9186,550,7,127617,118126
9188,551,7,127617,118108
9191,552,7,127553,118100
9193,554,7,127510,118090
9196,555,7,127510,118074
9198,556,7,127450,118060
9200,557,7,127412,118060
9203,558,8,127379,118030
9205,558,7,127379,118017
9208,558,8,127301,118005
9210,559,8,127258,118005
9213,559,8,127227,117989
9216,558,7,127188,117958
9219,558,8,127140,117942
9221,555,8,127108,117929
9223,554,7,127057,117929
9226,549,7,127023,117898
9228,547,7,127023,117875
9231,544,8,126990,117870
9233,541,8,126911,117870
9236,537,8,126871,117853
9238,531,7,126871,117821
9240,525,8,126837,117810
9243,522,8,126763,117810
9245,517,8,126743,117794
9248,512,7,126718,117773
9250,503,7,126718,117775
9253,497,8,126696,117766
9255,494,7,126650,117766
9259,489,7,126636,117757
9261,482,7,126636,117736
9263,478,7,126614,117734
9266,475,7,126576,117734
9268,472,7,126573,117722
9271,469,8,126556,117726
9273,464,7,126556,117708
9276,462,7,126542,117708
9278,461,7,126530,117708
9280,459,7,126523,117704
9283,457,7,126523,117691
9285,456,7,126511,117691
9288,456,7,126495,117691
9290,456,7,126494,117688
9293,456,7,126494,117683
9295,456,8,126492,117683
9298,455,7,126487,117692
9300,455,7,126487,117684
9303,456,7,126475,117683
9306,457,7,126475,117683
9308,457,7,126461,117682
9311,459,7,126461,117675
9313,460,7,126462,117676
9316,461,7,126457,117676
9318,462,7,126455,117671
9320,463,7,126452,117679
9323,465,7,126452,117670
9325,467,7,126444,117674
9328,468,7,126438,117674
9330,468,7,126439,117667
9333,470,7,126439,117663
9335,472,7,126432,117658
9338,473,7,126427,117658
9340,474,7,126424,117655
9342,475,7,126420,117666
9346,476,7,126420,117654
9348,477,7,126417,117649
9351,478,7,126392,117649
9353,479,7,126396,117648
9356,480,7,126396,117635
9358,483,7,126388,117643
9360,484,7,126374,117643
9363,484,7,126371,117636
9365,485,7,126364,117640
9368,486,7,126361,117635
9370,486,7,126365,117635
9373,487,7,126339,117626
9375,487,7,126325,117627
9378,488,7,126325,117616
9380,490,7,126323,117611
9382,491,7,126300,117611
9385,492,7,126299,117611
9388,492,7,126290,117608
9391,492,7,126277,117603
9393,493,7,126279,117602
9396,494,7,126267,117599
9398,494,7,126258,117597
9400,494,7,126258,117596
9403,495,7,126259,117596
9405,496,7,126246,117590
9408,497,7,126250,117590
9410,498,7,126251,117590
9413,498,7,126239,117589
9415,498,7,126238,117584
9418,498,7,126241,117590
9420,499,7,126234,117588
9422,499,7,126233,117589
9425,499,7,126232,117598
9427,500,7,126237,117595
9431,500,7,126244,117589
9433,501,7,126246,117594
9436,501,7,126243,117592
9438,502,7,126250,117591
9440,502,7,126257,117605
9443,502,7,126245,117605
9445,502,7,126259,117602
9448,502,7,126261,117603
9450,502,7,126260,117604
9453,502,7,126266,117604
9455,502,7,126274,117598
9458,502,7,126280,117609
9460,503,7,126289,117613
9462,503,7,126292,117620
9465,504,7,126291,117608
9467,504,7,126290,117623
9470,504,7,126292,117619
9473,504,7,126298,117619
9476,504,7,126296,117615
9478,505,7,126310,117628
9480,504,7,126316,117627
9483,505,7,126315,117627
9485,505,7,126325,117634
9488,505,7,126325,117637
9490,505,7,126329,117634
9493,505,7,126331,117639
9495,505,7,126333,117630
9498,505,7,126327,117630
9500,505,7,126325,117626
9502,505,7,126328,117640
9505,505,7,126340,117640
9507,505,7,126345,117644
9510,505,7,126342,117650
9512,505,7,126349,117651
9516,505,7,126340,117654
9518,506,7,126342,117649
9520,506,7,126352,117649
9523,506,7,126352,117643
9525,506,7,126346,117651
9528,506,7,126347,117657
9530,506,7,126350,117656
9533,506,7,126354,117647
9535,507,7,126353,117659
9538,507,7,126342,117654
9540,507,7,126345,117656
9542,507,7,126345,117654
9545,507,7,126348,117657
9547,507,7,126361,117664
9550,507,7,126344,117661
9552,507,7,126349,117669
9555,507,7,126353,117654
9558,507,7,126353,117664
9560,508,7,126366,117663
9563,508,7,126359,117668
9565,508,7,126363,117677
9568,508,7,126360,117670
9570,508,7,126374,117672
9573,508,7,126360,117674
9575,508,7,126364,117677
9578,508,7,126377,117666
9580,509,7,126377,117678
9582,509,7,126377,117676
9585,508,7,126384,117676
9587,509,7,126383,117681
9590,509,7,126391,117684
9592,509,7,126395,117681
9595,509,7,126395,117687
9597,509,7,126409,117689
9600,509,7,126409,117689
9603,510,7,126421,117697
9605,510,7,126427,117692
9608,510,7,126428,117699
9610,510,7,126435,117698
9613,510,7,126441,117702
9615,510,7,126452,117710
9618,510,7,126452,117707
9620,510,7,126460,117713
9622,511,7,126471,117713
9625,510,7,126489,117726
9627,509,7,126490,117724
9630,509,7,126490,117727
9632,509,7,126497,117731
9635,510,7,126508,117731
9637,511,7,126513,117744
9639,511,7,126513,117743
9643,511,7,126536,117742
9645,511,7,126538,117742
9648,511,7,126550,117752
9650,511,7,126552,117762
9653,511,7,126552,117761
9655,511,7,126570,117765
9658,511,7,126584,117765
9660,511,7,126594,117777
9662,511,7,126594,117774
9665,511,7,126607,117779
9667,511,7,126621,117779
9670,511,7,126635,117792
9672,510,7,126637,117797
9675,511,7,126652,117802
9677,511,7,126652,117802
9679,510,7,126660,117806
9682,510,7,126675,117817
9684,511,7,126683,117817
9688,511,7,126695,117819
9690,511,7,126695,117821
9693,510,7,126699,117822
9695,510,7,126711,117822
9698,510,7,126719,117830
9700,509,7,126719,117838
9702,509,7,126737,117843
9705,509,7,126749,117844
9707,510,7,126749,117842
9710,510,7,126760,117845
9712,511,7,126769,117845
9715,510,7,126777,117856
9717,510,7,126777,117862
9719,510,7,126776,117864
9722,510,7,126802,117875
9724,510,7,126810,117875
9728,510,7,126810,117874
9730,510,7,126821,117874
9733,510,7,126835,117881
9735,510,7,126835,117884
9738,510,7,126841,117886
9740,511,7,126864,117886
9742,511,8,126863,117889
9745,511,7,126871,117896
9747,510,7,126885,117896
9750,511,7,126885,117906
9752,511,7,126885,117915
9755,512,7,126904,117915
9757,512,7,126904,117916
9759,513,7,126918,117919
9762,514,7,126926,117919
9764,514,7,126928,117919
9767,514,7,126928,117925
9769,515,7,126944,117928
9773,515,7,126953,117928
9775,515,7,126965,117933
9778,514,7,126965,117938
9780,514,7,126975,117938
9782,513,7,126981,117953
9785,514,7,126981,117957
9787,514,7,126981,117958
9790,514,8,127006,117958
9792,514,7,127006,117966
9795,515,7,127006,117965
9797,515,7,127013,117972
9799,515,7,127010,117972
9802,514,7,127040,117970
9804,514,7,127047,117976
9807,513,7,127047,117977
9809,511,7,127057,117986
9812,511,7,127054,117986
9815,510,7,127054,117989
9818,509,7,127054,117986
9820,508,7,127067,117997
9822,508,7,127076,117997
9825,508,7,127091,117995
9827,507,7,127089,118008
9830,506,7,127089,117996
9832,504,7,127111,118006
9835,503,7,127109,118002
9837,503,7,127121,118014
9839,502,8,127121,118019
9842,500,7,127131,118017
9844,500,7,127125,118017
9847,500,7,127139,118023
9849,500,7,127150,118020
9852,499,7,127153,118023
9854,499,7,127153,118024
9858,499,7,127178,118029
9860,499,7,127180,118036
9862,500,7,127180,118039
9865,499,7,127184,118039
9867,500,7,127184,118041
9870,499,7,127198,118051
9872,499,7,127202,118052
9875,500,7,127207,118049
9877,500,7,127219,118054
9879,500,7,127222,118056
9882,500,7,127232,118067
9884,500,7,127230,118057
9887,500,7,127243,118068
9889,501,7,127247,118073
9892,501,7,127254,118078
9894,501,7,127265,118073
9897,501,7,127280,118085
9900,501,7,127282,118084
9902,500,7,127295,118083
9905,498,7,127290,118091
9907,495,7,127294,118087
9910,489,7,127308,118094
9912,480,7,127309,118100
9915,478,7,127318,118100
9917,479,7,127319,118099
9919,486,7,127332,118103
9922,509,7,127337,118109
9924,522,7,127346,118111
9927,539,7,127350,118112
9929,554,7,127363,118113
9932,578,7,127360,118121
9934,618,7,127369,118119
9937,641,7,127377,118128
9939,665,7,127396,118130
9942,689,7,127404,118134
9945,717,7,127414,118135
9947,750,8,127416,118141
9950,764,7,127420,118147
9952,766,8,127435,118150
9955,754,7,127434,118150
9957,725,7,127441,118160
9959,683,7,127443,118162
9962,599,8,127455,118163
9964,560,7,127456,118168
9967,524,8,127470,118160
9969,479,7,127479,118165
9972,444,8,127493,118182
9974,419,7,127504,118182
9977,412,8,127502,118180
9979,410,7,127501,118183
9981,412,7,127525,118187
9985,418,7,127520,118195
9987,426,7,127524,118197
9990,432,7,127540,118200
9992,436,7,127550,118206
9995,441,7,127556,118205
9997,446,7,127569,118213
9999,449,7,127570,118214
10002,454,7,127587,118220
10004,456,7,127597,118225
10007,457,7,127600,118227
10009,460,7,127605,118232
10012,462,7,127614,118232
10014,464,7,127621,118230
10017,466,7,127633,118241
10019,467,7,127642,118249
10021,468,7,127647,118254
10024,470,7,127649,118257
10027,472,7,127658,118255
10030,473,7,127667,118262
10032,476,7,127681,118260
10035,477,7,127684,118263
10037,479,7,127695,118266
10039,481,7,127710,118271
10042,482,7,127713,118277
10044,483,7,127715,118280
10047,485,7,127722,118276
10049,486,7,127725,118276
10052,486,7,127738,118283
10054,487,7,127741,118295
10057,488,7,127756,118296
10059,490,7,127763,118296
10061,491,7,127770,118296
10064,491,7,127778,118302
10066,492,7,127786,118299
10070,493,7,127789,118304
10072,495,7,127800,118309
10075,495,7,127800,118316
10077,496,7,127818,118318
10079,497,7,127825,118318
10082,500,7,127840,118328
10084,501,7,127848,118320
10087,502,7,127849,118328
10089,503,7,127859,118336
10092,504,7,127864,118330
10094,504,7,127873,118339
10097,504,7,127873,118340
10099,505,7,127892,118340
10101,506,7,127899,118340
10104,507,7,127915,118356
10106,508,7,127912,118355
10109,509,7,127912,118356
10112,510,7,127934,118361
10115,511,7,127940,118361
10117,513,7,127947,118363
10119,514,7,127947,118370
10122,516,7,127959,118372
10124,517,7,127966,118372
10127,518,7,127970,118379
10129,519,7,127978,118382
10132,520,7,127978,118388
10134,522,7,127989,118387
10137,523,7,127988,118387
10139,526,7,127986,118387
10141,527,7,127986,118388
10144,529,7,127975,118383
10146,530,7,127966,118383
10149,532,7,127967,118385
10151,534,7,127944,118363
10155,535,7,127927,118366
10157,538,7,127927,118357
10159,539,7,127914,118344
10162,541,7,127872,118340
10164,542,7,127841,118340
10167,546,7,127822,118327
10169,547,7,127822,118314
10172,549,7,127792,118296
10174,550,7,127736,118296
10177,552,7,127706,118291
10179,554,7,127706,118264
10181,555,7,127679,118259
10184,556,8,127606,118245
10186,556,7,127606,118234
10189,556,7,127546,118223
10191,556,7,127518,118223
10194,555,7,127484,118203
10196,554,7,127484,118181
10199,553,7,127448,118171
10202,552,7,127380,118171
10204,550,7,127347,118155
10207,546,7,127347,118131
10209,545,8,127286,118131
10212,542,8,127251,118124
10214,537,7,127251,118094
10217,533,7,127225,118092
10219,529,7,127162,118092
10221,525,8,127150,118073
10224,516,7,127150,118054
10226,511,7,127119,118050
10229,506,7,127072,118050
10231,501,8,127063,118043
10234,493,7,127063,118029
10236,490,7,127036,118029
10238,485,7,127014,118025
10242,477,7,127014,118011
10244,473,7,127005,118010
10247,471,8,126987,118010
10249,467,7,126980,118009
10252,463,8,126980,118000
10254,460,7,126966,117996
10257,459,7,126961,117996
10259,456,7,126961,117988
10261,454,7,126955,117987
10264,453,7,126940,117987
10266,452,7,126940,117979
10269,451,7,126940,117982
10271,450,7,126939,117981
10274,450,7,126929,117981
10276,449,7,126935,117975
10278,449,7,126935,117977
10281,449,7,126924,117977
10284,450,7,126924,117974
10287,451,7,126916,117975
10289,452,7,126926,117970
10292,453,7,126922,117970
10294,454,7,126912,117976
10297,455,7,126912,117965
10299,456,7,126917,117965
10301,456,7,126917,117973
10304,458,7,126916,117962
10306,460,7,126912,117966
10309,462,7,126911,117963
10311,463,7,126909,117961
10314,465,7,126904,117961
10316,466,7,126908,117969
10318,467,7,126908,117959
10321,468,7,126908,117958
10323,470,7,126908,117957
10327,471,7,126909,117952
10329,472,7,126909,117956
10332,472,7,126902,117956
10334,474,7,126896,117952
10337,475,7,126904,117953
10339,476,7,126880,117948
10341,477,7,126880,117945
10344,478,7,126877,117948
10346,480,7,126873,117941
10349,480,7,126873,117938
10351,481,7,126863,117935
10354,482,7,126854,117936
10356,483,7,126838,117930
10358,483,7,126837,117922
10361,484,7,126829,117926
10363,485,7,126836,117920
10366,485,7,126818,117921
10369,485,7,126818,117916
10372,485,7,126816,117922
10374,487,7,126808,117912
10377,488,7,126804,117900
10379,489,7,126794,117902
10381,489,7,126793,117905
10384,490,7,126785,117907
10386,492,7,126782,117903
10389,493,7,126786,117896
10391,494,7,126785,117901
10394,494,7,126792,117905
10396,494,7,126785,117903
10398,495,7,126788,117905
10401,496,7,126785,117901
10403,495,7,126787,117905
10406,496,7,126787,117899
10408,496,7,126782,117909
10412,496,7,126784,117904
10414,496,7,126783,117902
10417,497,7,126791,117914
10419,497,7,126802,117906
10421,497,7,126800,117913
10424,497,7,126809,117912
10426,497,7,126813,117922
10429,498,7,126816,117916
10431,498,7,126813,117918
10434,499,7,126818,117918
10436,499,7,126820,117915
10438,498,7,126821,117923
10441,498,7,126826,117924
10443,498,7,126830,117927
10446,499,7,126842,117918
10448,499,7,126841,117922
10451,500,7,126839,117927
10454,499,7,126849,117931
10457,499,7,126855,117931
10459,499,7,126854,117929
10461,498,7,126860,117937
10464,498,7,126857,117930
10466,498,7,126855,117936
10469,498,7,126859,117936
10471,497,7,126865,117933
10474,497,7,126872,117934
10476,497,7,126871,117934
10478,497,7,126878,117942
10481,498,7,126863,117939
10483,499,7,126880,117945
10486,499,7,126871,117938
10488,498,7,126876,117938
10491,498,7,126876,117940
10493,498,7,126877,117940
10497,499,7,126879,117939
10499,500,7,126873,117943
10501,500,7,126876,117937
10504,500,7,126878,117942
10506,500,7,126880,117946
10509,500,7,126869,117940
10511,500,7,126877,117942
10514,500,7,126872,117943
10516,501,7,126877,117946
10518,502,7,126880,117937
10521,502,7,126882,117942
10523,502,7,126881,117953
10526,502,7,126876,117949
10528,503,7,126873,117940
10531,503,7,126879,117939
10533,504,7,126876,117943
10536,504,7,126879,117938
10539,504,7,126888,117941
10541,505,7,126887,117943
10544,505,7,126894,117949
10546,506,7,126887,117949
10549,505,7,126887,117947
10551,505,7,126890,117947
10554,505,7,126892,117947
10556,505,7,126904,117957
10558,506,7,126905,117945
10561,506,7,126904,117953
10563,506,7,126904,117962
10566,507,7,126913,117962
10568,507,7,126911,117965
10571,507,7,126911,117956
10573,508,7,126921,117962
10576,508,7,126924,117962
10578,509,7,126936,117973
10580,509,7,126943,117969
10584,510,7,126941,117966
10586,510,7,126941,117971
10589,510,7,126946,117970
10591,510,7,126955,117980
10594,510,7,126955,117977
10596,511,7,126970,117980
10598,511,7,126971,117980
10601,511,7,126982,117991
10603,512,7,126982,117992
10606,512,7,126985,117989
10608,512,7,126996,117989
10611,512,7,127004,117993
10613,513,7,127015,118004
10616,513,7,127009,118009
10618,513,7,127026,118002
10620,514,8,127025,118002
10624,514,7,127039,118011
10626,514,7,127039,118014
10629,513,7,127050,118020
10631,513,7,127049,118020
10634,513,7,127064,118019
10636,514,7,127067,118021
10638,514,7,127067,118032
10641,515,7,127078,118032
10643,515,8,127093,118034
10646,514,7,127098,118035
10648,515,7,127098,118044
10651,515,7,127106,118045
10653,514,7,127116,118045
10656,514,7,127120,118058
10658,514,7,127120,118051
10660,514,7,127135,118055
10663,515,7,127134,118055
10665,515,7,127134,118060
10669,515,7,127153,118060
10671,515,7,127153,118058
10674,515,7,127166,118066
10676,515,7,127167,118066
10678,515,7,127177,118073
10681,516,7,127178,118073
10683,516,7,127192,118073
10686,515,7,127192,118078
10688,515,7,127194,118085
10691,515,7,127214,118085
10693,515,7,127214,118089
10696,516,7,127224,118093
10698,516,7,127224,118093
10700,516,7,127192,118097
10703,516,7,127192,118101
10705,516,7,127236,118093
10708,517,7,127246,118093
10711,517,7,127265,118107
10714,517,7,127265,118111
10716,517,7,127271,118111
10718,517,7,127273,118118
10721,517,7,127273,118115
10723,517,7,127286,118121
10726,517,7,127296,118121
10728,516,7,127297,118120
10731,515,7,127297,118118
10733,516,7,127300,118129
10736,516,7,127301,118129
10738,516,7,127323,118132
10740,516,7,127321,118137
10743,517,7,127321,118139
10745,518,7,127333,118136
10748,518,7,127334,118136
10750,518,7,127344,118147
10754,518,7,127344,118147
10756,518,7,127350,118149
10758,518,7,127362,118149
10761,517,7,127357,118154
10763,518,7,127366,118164
10766,518,7,127366,118162
10768,517,7,127380,118162
10771,517,7,127384,118166
10773,517,7,127395,118166
10776,517,7,127395,118169
10778,517,7,127396,118174
10780,517,7,127400,118174
10783,518,7,127404,118183
10785,518,7,127412,118185
10788,519,7,127410,118185
10790,521,7,127430,118190
10793,522,7,127436,118185
10796,522,7,127444,118188
10798,522,7,127444,118191
10801,522,7,127452,118191
10803,522,7,127450,118190
10806,522,7,127469,118200
10808,522,7,127473,118196
10811,522,7,127473,118201
10813,522,7,127471,118204
10816,521,7,127482,118203
10818,522,7,127487,118205
10820,522,7,127492,118210
10823,524,7,127492,118212
10825,525,7,127503,118215
10828,525,7,127509,118218
10830,525,7,127517,118220
10833,524,7,127521,118221
10835,523,7,127532,118231
10838,522,7,127548,118224
10841,521,7,127535,118228
10843,521,7,127549,118232
10846,520,7,127561,118238
10848,520,7,127558,118235
10851,520,7,127563,118243
10853,519,7,127576,118246
10856,518,7,127574,118249
10858,517,7,127580,118251
10860,516,7,127585,118256
10863,514,7,127594,118256
10865,513,7,127616,118263
10868,512,7,127620,118264
10870,512,7,127615,118261
10873,511,7,127629,118266
10875,512,7,127624,118272
10877,511,7,127630,118273
10881,511,7,127650,118273
10883,511,7,127660,118286
10886,511,7,127659,118280
10888,510,7,127673,118279
10891,511,7,127673,118291
10893,511,7,127686,118288
10896,511,7,127695,118297
10898,512,7,127684,118299
10900,512,7,127695,118301
10903,512,7,127705,118296
10905,512,7,127720,118307
10908,512,7,127715,118306
10910,512,8,127723,118309
10913,512,7,127736,118315
10915,512,7,127750,118323
10917,513,7,127754,118320
10920,513,7,127759,118317
10923,513,7,127770,118332
10926,514,7,127775,118337
10928,513,7,127774,118337
10931,513,7,127786,118329
10933,510,7,127797,118332
10936,506,7,127796,118349
10938,496,7,127807,118345
10940,491,7,127817,118356
10943,489,7,127824,118353
10945,490,7,127840,118356
10948,498,7,127835,118363
10950,519,7,127842,118366
10953,529,7,127853,118364
10955,554,7,127857,118369
10957,573,7,127867,118367
10960,591,7,127866,118373
10962,617,7,127884,118382
10966,658,7,127889,118391
10968,681,8,127906,118388
10971,705,8,127899,118397
10973,725,7,127916,118398
10976,750,8,127923,118400
10978,772,8,127925,118408
10980,770,8,127935,118407
10983,758,8,127946,118411
10985,728,8,127945,118406
10988,661,8,127952,118412
10990,617,8,127959,118419
10993,573,8,127972,118420
10995,537,8,127978,118423
10997,493,8,127984,118424
11000,448,8,127981,118431
11002,434,8,127997,118431
11005,428,7,128001,118433
11008,425,7,128008,118439
11011,427,8,128020,118443
11013,435,7,128025,118445
11016,439,7,128025,118441
11018,445,7,128035,118442
11020,449,7,128053,118442
11023,457,8,128054,118455
11025,460,7,128068,118452
11028,463,7,128068,118459
11030,466,7,128074,118463
11033,468,7,128078,118463
11035,471,7,128099,118471
11037,472,7,128096,118469
11040,475,7,128102,118476
11042,477,7,128102,118470
11045,478,7,128110,118475
11047,480,7,128123,118482
11051,481,7,128123,118482
11053,483,7,128140,118490
11056,484,7,128144,118490
11058,485,7,128155,118490
11060,486,7,128160,118495
11063,488,7,128166,118494
11065,489,7,128166,118507
11068,490,7,128180,118515
11070,492,8,128184,118509
11073,493,7,128184,118514
11075,494,7,128197,118515
11077,495,8,128207,118515
11080,497,7,128214,118519
11082,498,7,128214,118517
11085,499,7,128228,118529
11087,500,7,128236,118529
11090,501,7,128244,118528
11092,502,8,128253,118524
11096,502,8,128245,118541
11098,504,7,128262,118541
11100,505,7,128266,118541
11103,507,7,128275,118546
11105,507,7,128275,118551
11108,508,7,128281,118553
11110,509,7,128288,118553
11113,509,7,128307,118555
11115,511,7,128307,118555
11117,512,7,128314,118557
11120,513,7,128318,118557
11122,513,7,128335,118567
11125,513,7,128343,118579
11127,514,7,128343,118580
11130,516,7,128352,118582
11132,517,8,128362,118582
11136,518,7,128379,118587
11138,520,7,128379,118588
11140,521,7,128379,118590
11143,522,7,128383,118590
11145,523,7,128403,118594
11148,523,7,128406,118596
11150,524,7,128406,118600
11153,525,7,128414,118602
11155,527,7,128422,118602
11157,527,7,128430,118605
11160,530,7,128433,118611
11162,531,7,128430,118611
11165,534,7,128430,118613
11167,536,7,128435,118616
11170,537,7,128448,118616
11172,539,7,128448,118613
11175,540,7,128444,118611
11177,542,7,128428,118611
11180,543,7,128418,118606
11183,545,7,128418,118597
11185,547,7,128406,118592
11188,549,7,128375,118592
11190,550,7,128355,118578
11193,553,7,128355,118571
11195,555,7,128307,118571
11197,556,7,128279,118566
11200,559,7,128279,118543
11202,560,7,128267,118536
11205,561,8,128211,118536
11207,562,8,128181,118531
11210,563,7,128181,118504
11212,563,7,128157,118503
11215,564,7,128117,118503
11217,564,7,128071,118485
11219,564,7,128036,118478
11223,564,7,128036,118450
11225,563,7,128019,118442
11228,562,8,127945,118442
11230,561,7,127918,118435
