TimeStamp,ECG Data,GSR Data,PPG_Red Data,PPG_IR Data
4,0,0,0,0
6,437,19,0,57541
8,414,19,57526,57541
11,395,19,90366,73941
13,381,19,90366,90280
16,381,19,106709,106728
18,407,19,123095,113892
21,432,19,130529,113892
23,499,19,130511,113885
26,535,19,130506,113887
28,557,19,130520,113893
30,572,19,130520,113889
33,579,19,130510,113886
35,609,18,130511,113882
38,619,18,130530,113890
40,626,18,130522,113891
44,636,18,130522,113895
46,662,18,130517,113890
48,675,18,130507,113885
51,680,18,130524,113901
53,677,18,130531,113891
56,679,18,130518,113894
58,689,18,130516,113895
61,684,18,130525,113896
63,680,18,130538,113895
66,681,18,130531,113894
68,681,18,130536,113889
70,679,18,130531,113894
73,676,18,130521,113890
75,672,18,130525,113897
78,670,18,130523,113899
80,677,18,130526,113893
83,676,18,130532,113903
86,668,18,130535,113899
88,667,18,130532,113896
91,669,18,130529,113897
93,668,18,130523,113894
96,664,17,130526,113892
98,660,18,130520,113891
101,657,18,130519,113889
103,653,17,130522,113880
106,650,17,130524,113887
108,641,17,130518,113887
110,631,17,130521,113887
113,621,17,130519,113889
115,609,17,130518,113887
118,602,17,130514,113888
120,601,17,130524,113890
123,604,17,130517,113888
125,602,17,130517,113885
128,604,17,130533,113894
131,590,17,130522,113889
133,589,17,130528,113891
136,592,17,130530,113896
138,592,17,130527,113895
141,584,17,130518,113891
143,581,17,130526,113895
146,583,16,130525,113891
148,579,17,130522,113889
150,579,16,130531,113893
153,565,16,130521,113891
155,561,16,130516,113891
158,561,16,130518,113882
160,571,16,130527,113889
163,577,16,130518,113893
165,577,16,130518,113882
167,563,16,130511,113878
171,547,16,130514,113883
173,552,16,130510,113880
176,555,16,130501,113880
178,553,16,130510,113880
181,541,16,130511,113883
183,535,16,130501,113880
186,536,16,130517,113871
188,531,16,130504,113883
190,531,16,130509,113885
193,523,16,130505,113867
195,516,15,130504,113886
198,514,15,130508,113860
200,516,15,130504,113880
203,534,15,130512,113883
205,545,15,130515,113881
207,552,15,130522,113879
210,558,15,130506,113882
212,564,15,130506,113884
216,567,15,130523,113897
218,577,15,130517,113892
221,585,15,130524,113897
223,590,15,130528,113894
226,585,15,130531,113894
228,556,15,130539,113904
230,545,15,130537,113899
233,536,15,130545,113911
235,517,14,130552,113901
238,490,15,130554,113916
240,493,14,130559,113915
243,498,14,130565,113921
245,501,14,130567,113926
247,497,14,130570,113923
250,481,14,130580,113933
252,467,14,130580,113930
256,460,14,130581,113930
258,466,14,130584,113938
261,480,14,130584,113939
263,492,14,130591,113939
266,496,14,130590,113939
268,489,14,130592,113944
270,488,14,130592,113932
273,491,14,130592,113932
275,484,14,130600,113941
278,477,14,130589,113946
280,484,14,130608,113944
283,494,13,130602,113948
285,499,13,130610,113951
287,490,13,130592,113946
290,483,13,130609,113942
292,473,13,130597,113955
295,472,13,130599,113954
297,473,13,130588,113954
301,481,13,130604,113938
303,491,13,130602,113945
306,490,13,130602,113947
308,488,13,130597,113943
310,482,13,130599,113943
313,475,13,130608,113950
315,480,13,130607,113945
318,487,13,130605,113949
320,498,13,130603,113936
323,498,13,130603,113947
325,492,13,130591,113947
327,491,13,130593,113938
330,473,12,130595,113940
332,467,13,130595,113933
335,467,13,130588,113927
337,465,12,130588,113927
340,463,12,130589,113935
343,479,12,130589,113927
346,485,12,130579,113931
348,479,12,130574,113922
350,473,12,130566,113922
353,476,12,130565,113917
355,490,12,130565,113914
358,491,12,130560,113917
360,485,12,130559,113917
363,485,12,130558,113911
365,486,12,130558,113902
367,475,12,130554,113905
370,467,12,130546,113905
372,468,12,130544,113905
375,472,12,130540,113913
377,468,12,130540,113894
380,471,12,130540,113893
382,475,12,130540,113893
386,481,12,130546,113898
388,481,12,130546,113904
390,473,12,130522,113896
393,473,12,130539,113900
395,483,12,130539,113898
398,485,12,130540,113902
400,477,12,130541,113902
403,476,12,130546,113904
405,474,12,130546,113903
407,464,12,130528,113901
410,458,12,130544,113901
412,459,12,130548,113898
415,461,12,130548,113890
417,456,12,130542,113895
420,452,12,130495,113895
422,453,12,130523,113885
425,468,12,130523,113882
428,474,12,130524,113882
430,474,12,130510,113887
433,469,12,130510,113871
435,477,12,130511,113864
438,483,12,130496,113864
440,487,12,130496,113861
443,486,12,130484,113861
445,485,12,130486,113867
447,477,12,130486,113863
450,479,12,130489,113856
452,482,12,130476,113858
455,479,12,130466,113858
457,471,12,130463,113863
460,465,12,130463,113855
462,473,12,130470,113861
465,474,12,130462,113861
467,477,12,130459,113861
470,474,12,130461,113861
473,464,12,130461,113856
475,464,12,130459,113863
478,470,12,130452,113863
480,483,12,130459,113872
483,486,12,130466,113872
485,486,12,130484,113862
487,478,12,130484,113867
490,454,12,130468,113866
492,452,11,130476,113866
495,453,12,130494,113873
497,450,11,130494,113879
500,448,12,130476,113882
502,448,12,130479,113888
505,466,12,130481,113888
507,469,12,130481,113887
509,465,12,130507,113890
513,462,12,130491,113896
515,462,12,130502,113896
518,461,12,130494,113896
520,456,12,130528,113909
523,458,12,130512,113900
525,459,12,130530,113901
527,451,12,130528,113909
530,452,12,130519,113910
532,456,12,130530,113916
535,461,11,130525,113916
537,464,11,130546,113918
540,465,11,130541,113923
542,456,11,130551,113923
545,458,11,130542,113917
547,460,11,130543,113930
549,458,11,130547,113921
552,451,11,130558,113930
555,450,11,130557,113925
558,451,11,130550,113924
560,456,11,130559,113926
563,468,11,130564,113930
565,473,11,130569,113928
567,470,11,130564,113925
570,471,11,130558,113930
572,464,11,130561,113930
575,454,11,130575,113933
577,452,11,130562,113929
580,457,11,130574,113936
582,455,11,130576,113932
585,456,11,130569,113939
587,458,11,130586,113937
589,469,11,130588,113937
592,480,11,130595,113941
594,483,11,130572,113940
598,479,11,130581,113946
600,474,11,130585,113942
603,479,11,130593,113944
605,486,11,130585,113948
607,486,11,130589,113947
610,489,11,130591,113944
612,486,11,130587,113940
615,469,11,130597,113948
617,469,11,130577,113944
620,474,11,130589,113948
622,477,11,130593,113946
625,473,11,130599,113949
627,470,11,130602,113942
629,475,11,130584,113938
632,462,11,130603,113948
634,460,11,130580,113942
637,470,11,130593,113943
640,475,11,130586,113942
643,473,11,130592,113950
645,473,11,130601,113949
647,480,11,130587,113950
650,472,11,130589,113950
652,471,11,130596,113948
655,477,11,130594,113945
657,483,11,130587,113950
660,490,11,130588,113948
662,479,11,130584,113941
665,478,11,130602,113944
667,474,11,130593,113947
669,476,11,130596,113947
672,469,11,130597,113938
674,461,11,130597,113943
677,463,11,130594,113953
679,479,11,130600,113959
683,489,11,130606,113955
685,491,11,130613,113963
687,480,11,130607,113960
690,474,11,130610,113965
692,482,11,130613,113956
695,487,11,130614,113965
697,485,10,130624,113962
700,475,11,130607,113970
702,471,11,130618,113961
705,474,11,130618,113928
707,473,11,130618,113961
709,478,11,130602,113956
712,472,11,130602,113930
714,464,11,130607,113927
717,461,11,130601,113951
719,466,11,130599,113949
722,467,11,130590,113949
724,481,11,130598,113945
727,493,10,130592,113941
730,495,10,130584,113934
732,488,11,130581,113936
735,473,10,130571,113933
737,477,10,130569,113926
740,482,11,130579,113925
742,486,10,130569,113926
745,480,10,130570,113926
747,478,10,130565,113920
749,481,10,130559,113919
752,481,10,130559,113911
754,474,10,130551,113919
757,468,10,130542,113904
759,486,11,130539,113903
762,493,10,130539,113916
764,493,10,130536,113898
766,494,10,130537,113898
770,488,10,130531,113915
772,480,10,130531,113910
775,475,10,130526,113895
777,479,10,130526,113895
780,490,11,130531,113897
782,491,10,130525,113899
785,486,11,130525,113897
787,480,10,130531,113892
789,473,10,130530,113892
792,465,10,130532,113899
794,471,11,130535,113901
797,479,10,130537,113907
799,495,10,130537,113901
802,496,10,130537,113908
804,491,11,130535,113900
806,495,11,130535,113904
809,496,11,130543,113899
812,485,10,130530,113899
815,468,11,130547,113905
817,471,11,130547,113906
820,479,10,130536,113901
822,481,11,130533,113898
825,477,11,130533,113889
827,470,10,130530,113898
829,472,11,130530,113889
832,480,10,130525,113892
834,482,11,130521,113892
837,480,11,130520,113891
839,485,11,130520,113893
842,493,10,130528,113898
844,492,11,130518,113892
846,486,11,130524,113892
849,483,11,130519,113887
851,477,11,130519,113882
855,480,10,130514,113882
857,480,11,130514,113891
860,488,11,130527,113887
862,492,11,130517,113887
865,498,11,130527,113890
867,495,10,130527,113886
869,486,11,130515,113895
872,481,11,130530,113897
874,479,10,130522,113897
877,478,11,130530,113904
879,486,11,130530,113899
882,496,11,130525,113901
884,502,11,130534,113901
886,497,11,130547,113898
889,489,11,130547,113899
891,485,11,130541,113900
894,482,11,130543,113900
897,474,11,130556,113897
900,467,11,130556,113907
902,469,11,130526,113905
905,477,11,130527,113906
907,485,11,130559,113906
909,494,11,130561,113920
912,491,11,130561,113908
914,496,10,130557,113911
917,501,11,130557,113911
919,502,11,130561,113910
922,488,10,130561,113906
924,486,11,130531,113915
926,492,11,130572,113915
929,492,11,130562,113915
931,480,11,130562,113907
934,480,11,130559,113913
936,487,11,130564,113914
940,488,11,130559,113914
942,485,11,130571,113911
945,491,11,130571,113916
947,497,11,130565,113919
949,496,11,130577,113919
952,489,11,130571,113921
954,489,11,130571,113915
957,492,11,130561,113910
959,490,11,130569,113919
962,484,11,130573,113919
964,485,11,130578,113923
966,482,11,130569,113925
969,474,11,130569,113926
971,470,11,130589,113926
974,471,11,130595,113919
976,469,11,130595,113922
979,472,11,130568,113921
982,472,11,130583,113933
985,493,11,130577,113933
987,495,11,130572,113929
989,490,11,130604,113933
992,490,11,130589,113929
994,495,11,130581,113929
997,494,11,130588,113938
999,486,11,130613,113943
1002,487,11,130591,113933
1004,486,11,130616,113933
1006,486,11,130591,113932
1009,491,11,130593,113930
1011,480,11,130610,113932
1014,482,11,130588,113929
1016,484,11,130604,113928
1019,480,11,130604,113929
1021,477,11,130597,113933
1025,476,11,130581,113926
1027,474,11,130578,113923
1029,476,11,130590,113921
1032,488,11,130587,113925
1034,497,11,130581,113925
1037,497,11,130584,113927
1039,511,11,130598,113928
1042,522,11,130581,113916
1044,532,11,130583,113917
1046,543,11,130587,113921
1049,556,11,130585,113927
1051,549,11,130570,113920
1054,544,11,130581,113936
1056,546,11,130583,113926
1059,543,11,130579,113923
1061,510,11,130571,113928
1064,490,11,130578,113920
1067,474,11,130581,113928
1069,471,11,130580,113925
1072,466,11,130585,113928
1074,459,11,130581,113931
1077,456,11,130587,113931
1079,455,11,130590,113928
1082,467,11,130601,113927
1084,486,11,130588,113931
1086,497,11,130603,113936
1089,488,11,130581,113938
1091,485,11,130580,113933
1094,485,11,130591,113929
1096,480,11,130589,113932
1099,482,11,130600,113927
1101,483,11,130589,113931
1104,485,11,130589,113936
1106,484,11,130597,113935
1108,487,11,130600,113931
1112,482,11,130586,113931
1114,475,11,130592,113938
1117,476,11,130594,113930
1119,491,11,130603,113934
1122,500,11,130595,113939
1124,507,11,130586,113929
1126,500,11,130597,113927
1129,489,11,130601,113931
1131,493,11,130585,113936
1134,495,11,130599,113930
1136,491,11,130593,113939
1139,479,11,130590,113934
1141,475,11,130596,113936
1144,482,11,130592,113928
1146,480,11,130597,113931
1148,485,11,130594,113940
1152,492,11,130599,113942
1154,499,11,130591,113933
1157,497,11,130590,113923
1159,488,11,130596,113935
1162,487,11,130595,113938
1164,482,11,130599,113938
1166,479,11,130593,113936
1169,479,11,130591,113945
1171,477,11,130589,113935
1174,483,11,130583,113919
1176,485,11,130594,113929
1179,492,11,130577,113932
1181,504,11,130584,113934
1184,506,11,130572,113899
1186,499,11,130575,113919
1188,500,11,130566,113916
1191,484,11,130563,113889
1193,477,11,130571,113896
1197,476,11,130566,113915
1199,490,11,130570,113922
1202,500,11,130562,113922
1204,501,11,130566,113920
1206,508,11,130563,113913
1209,510,11,130563,113914
1211,506,11,130556,113913
1214,492,11,130547,113916
1216,496,11,130549,113910
1219,500,11,130552,113905
1221,504,11,130554,113905
1224,498,11,130552,113905
1226,496,11,130560,113909
1228,500,11,130551,113909
1231,500,11,130568,113914
1233,494,11,130564,113912
1236,493,11,130563,113911
1239,505,11,130572,113915
1242,510,11,130572,113925
1244,510,11,130573,113924
1246,511,11,130577,113924
1249,503,11,130588,113926
1251,501,11,130579,113930
1254,496,11,130579,113925
1256,496,11,130577,113920
1259,493,11,130584,113920
1261,505,11,130589,113931
1264,515,11,130589,113949
1266,515,11,130590,113931
1268,515,11,130585,113933
1271,512,11,130592,113934
1273,509,11,130587,113928
1276,505,11,130585,113922
1278,501,11,130580,113921
1282,508,12,130580,113920
1284,520,12,130564,113920
1286,526,11,130572,113920
1289,514,12,130565,113920
1291,508,12,130565,113924
1294,500,11,130552,113913
1296,501,12,130556,113913
1299,509,11,130554,113916
1301,513,12,130554,113909
1304,504,11,130543,113906
1306,493,12,130544,113909
1308,486,12,130543,113909
1311,491,12,130536,113908
1313,510,12,130536,113910
1316,513,11,130531,113912
1318,510,12,130531,113912
1321,510,12,130533,113912
1324,496,12,130533,113904
1326,486,11,130523,113896
1329,481,12,130511,113897
1331,484,12,130502,113897
1334,490,12,130504,113898
1336,486,12,130504,113890
1339,490,12,130503,113892
1341,493,12,130505,113892
1344,495,12,130513,113894
1346,490,12,130513,113893
1348,491,12,130507,113900
1351,493,12,130509,113894
1353,503,12,130509,113897
1356,504,12,130516,113903
1358,498,12,130513,113903
1361,498,12,130520,113902
1363,499,12,130520,113904
1366,488,12,130510,113908
1369,482,12,130527,113908
1371,482,12,130516,113904
1374,495,12,130537,113910
1376,498,12,130537,113906
1379,500,12,130536,113906
1381,495,12,130547,113908
1384,492,12,130545,113914
1386,491,12,130545,113918
1388,482,12,130527,113918
1391,479,12,130549,113916
1393,496,12,130549,113921
1396,502,12,130553,113918
1398,499,12,130554,113918
1551,513,13,130574,113922
1553,508,13,130561,113913
1556,506,13,130573,113924
1548,507,13,130568,113915
1551,513,13,130574,113922
1553,508,13,130561,113913
1556,506,13,130573,113924
1558,513,13,130573,113916
1548,507,13,130568,113915
1551,513,13,130574,113922
1553,508,13,130561,113913
1556,506,13,130573,113924
1558,513,13,130573,113916
1561,525,13,130572,113914
1563,520,13,130572,113917
1565,517,13,130578,113920
1568,519,13,130562,113915
1570,519,13,130574,113925
1573,503,13,130567,113917
1575,502,13,130572,113922
1579,505,13,130578,113927
1581,508,13,130588,113924
1584,505,13,130584,113920
1586,496,13,130570,113917
1588,499,13,130573,113922
1591,504,13,130584,113923
1593,507,13,130569,113920
1596,512,13,130581,113925
1598,512,13,130574,113917
1601,505,13,130587,113922
1603,504,13,130581,113927
1605,508,13,130577,113930
1608,501,13,130575,113924
1610,502,13,130557,113915
1613,508,13,130567,113920
1615,512,13,130573,113923
1618,515,13,130570,113927
1620,505,13,130571,113928
1624,504,13,130577,113922
1626,499,13,130566,113925
1628,501,13,130584,113930
1631,496,13,130572,113928
1633,488,13,130574,113923
1636,489,13,130580,113924
1638,503,13,130583,113933
1641,513,13,130573,113927
1643,516,13,130582,113928
1645,505,13,130581,113930
1648,499,13,130588,113925
1650,508,13,130580,113922
1653,513,13,130587,113921
1655,511,13,130582,113931
1658,499,13,130575,113909
1660,488,13,130572,113925
1664,496,13,130580,113910
1666,495,13,130580,113934
1668,490,13,130585,113919
1671,487,13,130579,113923
1673,495,13,130592,113928
1676,506,13,130571,113928
1678,512,13,130562,113922
1681,507,13,130569,113922
1683,511,13,130562,113924
1685,518,14,130573,113919
1688,522,13,130567,113922
1690,524,14,130561,113919
1693,516,13,130559,113919
1695,494,14,130566,113916
1698,498,13,130561,113919
1700,505,14,130558,113911
1703,512,14,130558,113911
1705,510,14,130558,113915
1708,509,14,130558,113914
1711,509,14,130556,113911
1713,499,14,130551,113903
1716,489,14,130554,113914
1718,498,14,130544,113912
1721,505,14,130555,113900
1723,518,14,130556,113901
1725,520,14,130564,113922
1728,510,14,130563,113902
1730,498,14,130553,113902
1733,491,14,130550,113905
1735,489,14,130557,113905
1738,489,14,130558,113916
1740,494,14,130554,113902
1743,502,14,130557,113902
1745,516,14,130546,113914
1747,515,14,130546,113898
1751,517,14,130554,113902
1753,510,14,130548,113896
1756,503,14,130548,113905
1758,510,14,130562,113897
1761,517,14,130557,113901
1763,521,14,130553,113901
1765,516,14,130547,113901
1768,512,14,130545,113899
1770,513,14,130545,113902
1773,518,14,130547,113895
1775,515,14,130540,113895
1778,515,14,130548,113898
1780,508,14,130543,113895
1783,508,14,130543,113904
1785,503,14,130545,113902
1787,503,14,130538,113902
1790,500,14,130531,113894
1793,495,14,130531,113890
1796,487,14,130530,113891
1798,488,14,130535,113890
1801,492,14,130536,113890
1803,502,14,130537,113892
1805,499,14,130537,113892
1808,494,14,130542,113892
1810,495,14,130542,113891
1813,496,14,130546,113886
1815,500,14,130530,113896
1818,506,14,130549,113886
1820,505,14,130540,113894
1823,502,14,130540,113896
1825,493,14,130548,113902
1827,493,14,130548,113898
1830,500,14,130547,113899
1832,501,14,130557,113899
1836,498,14,130547,113894
1838,501,14,130547,113899
1841,510,14,130549,113899
1843,515,14,130559,113899
1845,514,14,130556,113907
1848,499,14,130552,113902
1850,498,14,130552,113904
1853,499,14,130553,113904
1855,503,14,130555,113905
1858,508,14,130557,113908
1860,506,14,130557,113903
1863,502,14,130557,113904
1865,499,14,130558,113904
1867,495,14,130538,113906
1870,483,14,130538,113903
1872,488,14,130562,113903
1875,495,14,130572,113903
1878,499,14,130572,113907
1881,498,14,130569,113911
1883,508,14,130569,113907
1885,514,14,130575,113918
1888,512,14,130539,113918
1890,511,14,130580,113914
1893,529,14,130580,113915
1895,542,14,130587,113931
1898,549,14,130587,113931
1900,556,14,130591,113923
1903,569,14,130591,113921
1905,565,14,130587,113935
1907,559,14,130601,113933
1910,552,14,130601,113933
1912,537,14,130613,113939
1915,514,14,130613,113944
1917,500,14,130618,113948
1921,490,14,130615,113948
1923,482,14,130630,113951
1925,475,14,130625,113949
1928,479,14,130625,113951
1930,480,14,130621,113951
1933,486,14,130625,113954
1935,485,14,130624,113954
1938,482,14,130624,113965
1940,482,14,130629,113958
1943,500,14,130625,113958
1945,506,14,130640,113962
1947,503,14,130641,113964
1950,503,14,130636,113963
1952,509,14,130631,113963
1955,507,14,130639,113954
1957,499,14,130633,113962
1960,498,14,130633,113958
1963,500,14,130636,113958
1965,503,14,130630,113958
1968,503,14,130633,113954
1970,503,14,130634,113954
1973,503,14,130631,113967
1975,496,14,130652,113957
1978,495,14,130631,113959
1980,496,14,130641,113958
1983,496,14,130644,113960
1985,497,14,130635,113957
1987,494,14,130636,113958
1990,487,14,130620,113954
1992,483,14,130643,113952
1995,488,14,130616,113952
1997,493,14,130632,113948
2000,502,14,130626,113951
2002,504,14,130626,113955
2004,505,14,130617,113949
2008,507,14,130623,113948
2010,506,14,130631,113949
2013,508,14,130618,113954
2015,508,14,130612,113941
2018,501,14,130623,113939
2020,497,14,130618,113946
2023,498,14,130603,113937
2025,506,14,130615,113940
2027,504,13,130618,113939
2030,497,14,130618,113937
2032,496,14,130603,113935
2035,501,13,130600,113936
2037,499,13,130612,113933
2040,505,13,130588,113933
2042,513,14,130601,113933
2044,524,14,130608,113930
2048,527,14,130611,113938
2050,524,13,130600,113936
2053,516,13,130601,113935
2055,509,13,130601,113935
2058,511,14,130598,113930
2060,514,14,130582,113935
2063,508,13,130599,113939
2065,506,13,130603,113930
2067,506,13,130601,113934
2070,502,13,130591,113936
2072,512,13,130602,113930
2075,519,13,130594,113932
2077,517,13,130599,113930
2080,519,13,130610,113938
2082,520,14,130604,113933
2084,521,14,130605,113938
2087,518,13,130604,113936
2089,518,13,130603,113936
2093,513,13,130600,113944
2095,511,13,130612,113935
2098,516,13,130604,113944
2100,519,13,130600,113936
2103,524,13,130607,113934
2105,519,14,130619,113942
2107,514,13,130609,113937
2110,507,14,130607,113934
2112,499,13,130618,113946
2115,506,13,130619,113942
2117,518,13,130606,113939
2120,521,13,130608,113940
2122,520,13,130610,113945
2124,523,13,130603,113935
2127,511,13,130594,113925
2129,508,13,130593,113924
2132,505,13,130585,113929
2135,513,13,130577,113928
2138,512,13,130582,113928
2140,516,14,130572,113923
2143,523,13,130572,113903
2145,520,13,130567,113916
2147,523,13,130561,113919
2150,513,13,130551,113912
2152,515,13,130558,113911
2155,521,13,130541,113913
2157,523,13,130551,113915
2160,514,13,130540,113915
2162,515,14,130535,113917
2164,523,13,130547,113913
2167,521,13,130532,113886
2169,511,13,130537,113914
2172,510,13,130540,113915
2174,512,13,130547,113921
2178,511,13,130547,113895
2180,503,13,130535,113917
2183,503,14,130536,113912
2185,497,14,130535,113902
2187,491,14,130543,113919
2190,491,13,130557,113930
2192,501,14,130545,113921
2195,507,13,130545,113921
2197,498,13,130554,113928
2200,497,13,130554,113933
2202,495,14,130557,113927
2204,496,13,130556,113927
2207,501,13,130565,113930
2209,504,13,130565,113936
2212,507,14,130561,113937
2214,507,13,130562,113926
2217,507,13,130565,113930
2220,501,13,130556,113927
2223,502,13,130556,113937
2225,499,13,130563,113928
2227,499,13,130567,113928
2230,501,13,130572,113937
2232,497,13,130568,113931
2235,495,13,130582,113947
2237,493,13,130575,113938
2240,502,14,130589,113935
2242,515,13,130583,113940
2244,521,13,130582,113940
2247,507,13,130586,113949
2249,503,13,130586,113955
2252,499,13,130591,113950
2254,505,13,130586,113943
2257,511,13,130603,113944
2259,516,13,130594,113944
2263,518,13,130604,113947
2265,499,13,130604,113966
2267,490,13,130604,113963
2270,486,13,130606,113963
2272,490,13,130611,113963
2275,499,13,130620,113955
2277,498,13,130620,113959
2280,502,13,130621,113969
2282,507,13,130627,113970
2284,509,13,130632,113981
2287,507,13,130638,113970
2289,500,13,130629,113977
2292,504,13,130647,113972
2294,508,13,130637,113972
2297,519,13,130636,113969
2299,522,13,130636,113967
2302,513,13,130651,113973
2305,504,13,130643,113985
2307,499,13,130645,113985
2310,505,13,130660,113981
2312,524,13,130660,113983
2315,526,13,130656,113984
2317,519,13,130662,113984
2320,514,13,130666,113981
2322,520,13,130666,113997
2324,522,13,130662,113998
2327,516,13,130666,113996
2329,516,13,130672,113996
2332,522,13,130671,113998
2334,514,13,130671,113997
2337,505,13,130672,113997
2339,510,13,130672,114002
2342,516,13,130693,113995
2344,512,13,130666,113995
2347,505,12,130690,114006
2350,513,13,130690,114000
2352,516,13,130684,114002
2355,516,13,130694,114002
2357,507,13,130694,114009
2360,507,13,130700,114009
2362,512,13,130702,114007
2364,512,13,130701,114014
2367,517,13,130701,114006
2369,521,12,130702,114003
2372,520,12,130672,114003
2374,520,12,130672,114006
2377,526,12,130663,114006
2379,524,13,130714,113999
2382,531,12,130714,114007
2384,531,12,130702,114009
2386,522,12,130706,114011
2390,515,12,130709,114016
2392,524,13,130709,114016
2395,527,12,130718,114016
2397,520,12,130717,114008
2400,520,12,130717,114014
2402,523,12,130709,114016
2404,522,12,130682,114016
2407,515,12,130682,114008
2409,519,12,130706,114008
2412,520,12,130694,114006
2414,513,12,130688,114006
2417,499,12,130688,113993
2419,499,12,130689,113994
2422,511,12,130687,113994
2424,516,12,130683,113992
2426,512,12,130680,113996
2429,512,12,130685,113994
2432,519,12,130672,113994
2435,519,12,130670,113989
2437,512,12,130662,113982
2440,513,12,130662,113978
2442,516,12,130665,113978
2444,521,12,130653,113972
2447,521,12,130658,113974
2449,519,12,130644,113974
2452,516,12,130648,113972
2454,509,12,130663,113974
2457,511,12,130638,113971
2459,511,12,130653,113966
2462,514,12,130646,113966
2464,517,12,130646,113979
2466,509,12,130653,113973
2469,507,12,130650,113980
2471,511,12,130640,113974
2475,510,12,130661,113974
2477,511,12,130644,113973
2480,515,12,130640,113967
2482,516,12,130653,113976
2484,512,12,130663,113982
2487,504,12,130664,113979
2489,501,12,130657,113985
2492,497,11,130669,113987
2494,495,11,130673,113980
2497,497,11,130657,113977
2499,500,12,130670,113982
2502,502,11,130666,113982
2504,522,11,130682,113986
2506,525,11,130664,113982
2509,521,12,130669,113988
2511,515,11,130670,113985
2514,520,11,130670,113979
2516,521,11,130645,113977
2520,526,11,130666,113988
2522,525,11,130654,113968
2524,520,11,130656,113963
2527,518,11,130640,113975
2529,519,11,130650,113976
2532,522,11,130647,113972
2534,524,11,130636,113964
2537,525,11,130644,113962
2539,521,11,130645,113971
2542,513,11,130641,113962
2544,512,11,130653,113965
2546,513,11,130638,113963
2549,509,11,130645,113960
2551,505,11,130644,113962
2554,514,11,130653,113966
2556,516,11,130655,113973
2560,513,11,130644,113964
2562,524,11,130649,113961
2564,534,11,130638,113969
2567,541,11,130649,113968
2569,539,11,130656,113966
2572,523,11,130659,113974
2574,524,11,130638,113968
2577,526,11,130658,113977
2579,525,11,130662,113978
2582,517,11,130662,113980
2584,511,11,130676,113983
2586,503,11,130665,113977
2589,493,11,130671,113978
2591,498,11,130668,113988
2594,512,11,130675,113981
2596,519,11,130671,113989
2599,518,11,130681,113990
2601,517,11,130678,113988
2604,521,10,130671,113983
2607,514,11,130670,113980
2609,518,11,130675,113985
2612,525,10,130672,113983
2614,522,11,130664,113980
2617,514,11,130645,113974
2619,513,11,130653,113972
2622,523,11,130644,113971
2624,517,11,130646,113964
2626,517,11,130643,113966
2629,521,11,130635,113954
2631,528,11,130625,113948
2634,521,11,130621,113943
2636,517,11,130618,113946
2639,516,11,130606,113943
2641,517,11,130604,113939
2643,516,11,130595,113906
2647,506,11,130596,113926
2649,502,11,130596,113925
2652,494,11,130591,113931
2654,489,11,130589,113921
2657,493,11,130589,113893
2659,490,11,130576,113919
2662,495,11,130565,113911
2664,494,11,130557,113891
2666,486,11,130565,113887
2669,484,11,130557,113905
2671,493,11,130563,113910
2674,495,11,130557,113906
2676,502,11,130565,113910
2679,509,11,130565,113900
2681,509,11,130560,113914
2683,511,11,130567,113912
2686,504,11,130580,113922
2689,506,11,130582,113916
2692,503,11,130583,113915
2694,503,11,130583,113925
2697,508,11,130589,113925
2699,509,11,130607,113943
2702,504,11,130607,113951
2704,499,11,130616,113950
2706,504,11,130619,113952
2709,506,11,130637,113962
2711,500,11,130638,113959
2714,497,11,130647,113975
2716,503,11,130653,113969
2719,506,11,130662,113991
2721,506,11,130673,113984
2723,510,11,130678,113984
2726,512,11,130694,113993
2728,515,11,130694,114008
2732,517,11,130702,113999
2734,526,11,130685,113999
2737,542,11,130704,113998
2739,551,11,130707,114011
2742,549,11,130707,114010
2744,547,11,130719,114025
2746,544,11,130713,114025
2749,550,11,130723,114023
2751,561,11,130726,114013
2754,562,11,130731,114030
2756,544,11,130731,114018
2759,526,11,130734,114027
2761,496,11,130731,114022
2763,493,11,130731,114020
2766,492,11,130724,114024
2768,481,11,130727,114024
2771,467,11,130732,114021
2774,471,11,130732,114022
2777,479,11,130726,114017
2779,476,11,130727,114014
2782,474,11,130714,114014
2784,492,11,130711,114006
2786,496,11,130711,114003
2789,492,11,130690,113998
2791,494,11,130690,113992
2794,499,11,130698,114000
2796,496,11,130691,114000
2799,498,11,130690,113986
2801,507,11,130690,113997
2803,512,11,130692,113982
2806,509,11,130667,113981
2808,504,11,130670,113981
2811,496,11,130668,113977
2813,493,11,130668,113978
2817,495,11,130667,113973
2819,490,11,130652,113973
2822,494,11,130665,113968
2824,498,11,130665,113968
2826,491,11,130655,113969
2829,483,11,130648,113967
2831,479,11,130631,113967
2834,489,11,130651,113962
2836,503,11,130651,113962
2839,514,11,130657,113973
2841,516,11,130662,113973
2843,511,11,130659,113963
2846,508,11,130659,113966
2848,507,11,130661,113976
2851,502,11,130636,113976
2853,503,11,130636,113977
2856,513,11,130663,113977
2859,519,11,130673,113970
2862,526,11,130673,113978
2864,523,11,130666,113978
2866,515,11,130664,113972
2869,498,11,130664,113978
2871,503,11,130670,113976
2874,508,11,130668,113976
2876,512,11,130668,113975
2879,509,11,130652,113975
2881,508,11,130658,113970
2883,503,11,130658,113970
2886,508,11,130664,113977
2888,512,11,130665,113973
2891,511,11,130649,113973
2893,508,11,130649,113971
2896,513,11,130655,113971
2898,519,11,130650,113970
2902,521,11,130650,113974
2904,514,11,130649,113967
2906,507,11,130650,113967
2909,503,11,130653,113970
2911,495,11,130648,113964
2914,488,11,130648,113961
2916,488,11,130649,113964
2919,497,11,130641,113964
2921,515,11,130641,113961
2923,520,11,130643,113961
2926,521,11,130653,113961
2928,512,11,130653,113955
2931,501,11,130635,113961
2933,501,11,130645,113966
2936,511,11,130636,113966
2938,522,11,130647,113958
2941,525,11,130648,113958
2944,525,11,130663,113960
2946,515,11,130663,113958
2949,504,11,130641,113960
2951,498,11,130649,113968
2954,500,11,130655,113968
2956,516,11,130646,113962
2959,523,11,130646,113966
2961,524,11,130660,113967
2963,519,11,130660,113959
2966,510,11,130652,113963
2968,507,11,130647,113966
2971,503,11,130662,113971
2973,500,10,130656,113970
2976,503,10,130650,113966
2978,507,11,130649,113961
2981,508,11,130644,113958
2983,510,11,130649,113970
2985,519,10,130633,113959
2989,515,10,130631,113961
2991,512,11,130642,113959
2994,513,11,130616,113965
2996,525,11,130626,113952
2999,527,11,130614,113950
3001,523,10,130622,113954
3003,523,10,130620,113953
3006,520,10,130609,113953
3008,523,11,130602,113951
3011,520,11,130598,113946
3013,517,11,130602,113947
3016,522,11,130608,113945
3018,526,11,130586,113941
3021,516,11,130595,113943
3023,510,11,130607,113949
3025,510,11,130587,113940
3028,504,10,130589,113939
3031,498,11,130591,113940
3034,503,10,130593,113939
3036,504,11,130580,113938
3039,505,10,130573,113936
3041,501,11,130591,113935
3043,503,11,130595,113943
3046,507,11,130587,113939
3048,510,11,130572,113937
3051,515,11,130588,113941
3053,515,11,130587,113940
3056,507,11,130598,113940
3058,504,10,130601,113944
3061,508,10,130593,113946
3063,498,11,130604,113951
3065,499,11,130583,113941
3068,503,10,130592,113944
3070,505,10,130595,113951
3074,497,11,130603,113953
3076,500,11,130598,113955
3079,505,11,130611,113958
3081,508,11,130606,113953
3083,503,11,130603,113952
3086,500,11,130612,113953
3088,509,11,130597,113961
3091,515,11,130608,113950
3093,514,11,130610,113952
3096,504,11,130604,113954
3098,499,11,130611,113954
3101,502,11,130623,113957
3103,499,11,130619,113958
3105,502,11,130621,113960
3108,497,11,130616,113953
3110,494,11,130612,113958
3113,500,11,130620,113943
3116,499,11,130616,113962
3119,505,11,130616,113964
3121,504,11,130626,113962
3123,498,11,130624,113965
3126,496,11,130623,113961
3128,491,11,130626,113961
3131,491,11,130626,113962
3133,504,11,130630,113961
3136,514,11,130635,113948
3138,511,11,130629,113974
3141,516,11,130630,113974
3143,511,11,130636,113954
3145,501,11,130639,113940
3148,496,11,130632,113980
3150,502,11,130644,113966
3153,502,10,130637,113971
3155,508,11,130646,113968
3159,514,11,130646,113960
3161,513,11,130639,113974
3163,516,11,130646,113975
3166,508,11,130642,113969
3168,509,11,130651,113971
3171,511,11,130639,113970
3173,512,11,130642,113970
3176,507,11,130654,113974
3178,510,11,130651,113977
3181,513,11,130651,113975
3183,510,11,130644,113971
3185,511,11,130645,113971
3188,501,11,130648,113978
3190,496,11,130657,113984
3193,495,11,130657,113973
3195,502,11,130655,113973
3198,513,11,130656,113973
3201,516,11,130654,113979
3203,517,11,130654,113991
3206,513,11,130664,113977
3208,516,11,130665,113978
3211,519,11,130661,113985
3213,515,11,130661,113979
3216,515,11,130661,113998
3218,510,11,130672,113986
3221,511,11,130674,113986
3223,508,11,130681,114008
3225,502,11,130681,114010
3228,496,11,130684,113990
3230,501,11,130688,113990
3233,501,11,130696,114007
3235,501,11,130690,113997
3238,507,11,130697,114004
3240,523,11,130690,114000
3243,528,11,130690,114004
3246,529,11,130703,114005
3248,522,11,130702,114005
3251,500,11,130699,114000
3253,499,11,130699,114002
3256,502,11,130699,114007
3258,496,11,130696,114006
3261,492,11,130691,114006
3263,503,11,130698,113999
3265,505,11,130698,113999
3268,500,11,130683,113987
3270,500,11,130687,113987
3273,504,11,130688,113985
3275,504,11,130688,113989
3278,509,11,130678,113990
3280,512,12,130684,113992
3282,519,12,130684,113990
3286,523,11,130664,113990
3288,518,12,130672,113990
3291,500,11,130672,113971
3293,498,11,130657,113971
3296,499,11,130652,113973
3298,504,12,130652,113969
3301,506,11,130634,113961
3303,502,11,130638,113961
3305,501,12,130638,113960
3308,494,11,130628,113953
3310,488,12,130628,113950
3313,491,11,130632,113951
3315,489,12,130622,113951
3318,495,11,130619,113956
3320,504,12,130619,113944
3322,497,11,130613,113950
3325,493,11,130619,113950
3328,498,11,130616,113951
3331,510,11,130622,113948
3333,503,11,130622,113947
3336,497,11,130586,113947
3338,493,11,130614,113941
3341,501,12,130614,113941
3343,505,11,130614,113941
3345,504,11,130612,113945
3348,499,12,130612,113952
3350,505,11,130620,113948
3353,508,12,130626,113948
3355,513,12,130626,113950
3358,513,12,130617,113950
3360,509,12,130625,113951
3362,505,12,130625,113951
3365,513,12,130628,113941
3367,520,12,130621,113938
3371,515,12,130623,113944
3373,509,12,130623,113938
3376,507,12,130626,113938
3378,510,12,130626,113944
3381,514,12,130624,113944
3383,516,12,130624,113943
3385,510,12,130615,113943
3388,504,12,130632,113943
3390,503,12,130632,113944
3393,518,12,130627,113951
3395,517,12,130627,113949
3398,512,12,130621,113949
3400,511,12,130636,113950
3402,508,12,130636,113955
3405,499,12,130626,113957
3407,502,12,130629,113957
3410,508,12,130640,113953
3412,507,12,130640,113955
3416,508,12,130618,113950
3418,508,12,130628,113942
3421,524,12,130608,113942
3423,526,12,130623,113943
3425,521,12,130635,113934
3428,520,12,130621,113938
3430,520,12,130616,113938
3433,519,12,130606,113941
3435,512,12,130636,113943
3438,512,12,130614,113938
3440,512,12,130644,113938
3442,512,12,130609,113943
3445,515,12,130609,113941
3447,506,12,130636,113941
3450,505,13,130615,113945
3452,503,12,130628,113940
3456,505,12,130618,113941
3458,510,12,130623,113940
3461,511,12,130621,113940
3463,510,12,130614,113936
3465,505,12,130623,113934
3468,504,12,130618,113941
3470,503,12,130620,113933
3473,503,13,130622,113946
3475,496,13,130614,113948
3478,492,13,130620,113938
3480,496,12,130615,113940
3482,494,13,130626,113943
3485,487,12,130625,113946
3487,488,12,130623,113938
3490,489,13,130615,113950
3492,496,13,130620,113940
3495,500,12,130621,113945
3497,497,13,130626,113950
3501,498,12,130630,113943
3503,497,12,130644,113956
3505,501,13,130629,113955
3508,511,13,130639,113955
3510,518,13,130646,113956
3513,522,13,130647,113964
3515,518,12,130644,113961
3518,503,12,130662,113960
3520,493,13,130661,113961
3522,490,13,130649,113962
3525,489,13,130653,113955
3527,492,13,130647,113958
3530,507,13,130656,113959
3532,513,13,130651,113966
3535,518,13,130645,113963
3537,518,13,130650,113955
3540,510,13,130646,113957
3543,498,13,130638,113960
3545,497,13,130636,113963
3548,496,13,130634,113951
3550,489,13,130641,113958
3553,487,13,130646,113951
3555,495,13,130638,113956
3558,500,13,130645,113957
3560,502,13,130637,113953
3562,509,13,130646,113957
3565,507,13,130638,113964
3567,499,13,130647,113963
3570,505,13,130657,113961
3572,525,13,130649,113967
3575,537,13,130651,113962
3577,540,13,130647,113964
3580,551,13,130655,113958
3582,554,13,130651,113956
3585,553,13,130647,113968
3588,538,13,130644,113948
3590,536,13,130650,113967
3593,542,13,130646,113963
3595,540,13,130653,113961
3598,520,13,130654,113969
3600,505,13,130648,113966
3602,501,13,130651,113970
3605,486,13,130644,113963
3607,486,13,130654,113963
3610,491,13,130644,113960
3612,492,13,130650,113968
3615,485,13,130646,113962
3617,492,13,130650,113965
3620,504,13,130651,113963
3622,513,13,130654,113972
3624,516,13,130646,113962
3628,489,13,130649,113939
3630,476,13,130647,113929
3633,475,13,130649,113966
3635,492,14,130643,113958
3638,501,13,130646,113959
3640,512,14,130644,113969
3642,511,13,130647,113943
3645,501,13,130657,113965
3647,494,13,130657,113965
3650,486,14,130650,113969
3652,489,14,130661,113966
3655,496,14,130661,113953
3657,497,14,130649,113970
3660,501,13,130652,113957
3662,499,14,130647,113967
3664,504,14,130651,113961
3667,504,14,130640,113955
3670,497,14,130636,113947
3673,494,14,130639,113951
3675,503,14,130634,113957
3678,507,14,130634,113957
3680,506,14,130620,113943
3682,508,14,130631,113943
3685,501,14,130620,113941
3687,501,14,130623,113940
3690,502,14,130629,113939
3692,502,14,130616,113943
3695,498,14,130616,113939
3697,503,14,130616,113935
3700,507,14,130615,113941
3702,503,14,130615,113926
3704,504,14,130610,113926
3707,500,14,130612,113932
3709,498,14,130607,113925
3713,501,14,130595,113937
3715,510,14,130612,113927
3718,509,14,130612,113930
3720,503,14,130594,113916
3722,503,14,130593,113916
3725,496,14,130589,113920
3727,496,14,130589,113914
3730,499,14,130584,113914
3732,498,14,130576,113909
3735,493,14,130583,113915
3737,499,14,130576,113911
3740,503,14,130574,113920
3742,499,14,130579,113913
3744,499,14,130569,113913
3747,495,14,130577,113906
3749,495,14,130577,113904
3752,500,14,130576,113903
3755,503,14,130577,113903
3758,508,14,130582,113909
3760,507,14,130582,113911
3762,509,14,130579,113908
3765,510,14,130584,113912
3767,511,14,130578,113912
3770,510,14,130587,113912
3772,517,14,130587,113914
3775,527,14,130594,113923
3777,530,14,130604,113923
3780,537,14,130595,113928
3782,532,14,130595,113920
3784,529,14,130602,113925
3787,527,14,130607,113923
3789,529,14,130599,113923
3792,531,14,130610,113931
3794,529,14,130610,113931
3798,529,14,130610,113930
3800,529,14,130609,113930
3802,529,14,130612,113930
3805,521,14,130612,113931
3807,521,14,130609,113928
3810,523,14,130603,113930
3812,525,14,130596,113930
3815,524,14,130600,113925
3817,521,14,130600,113912
3820,521,14,130585,113912
3822,522,14,130585,113908
3824,519,14,130579,113910
3827,514,14,130540,113910
3829,511,14,130573,113912
3832,518,14,130573,113897
3834,518,14,130566,113897
3837,518,14,130567,113892
3840,521,14,130562,113892
3842,530,15,130553,113905
3845,528,14,130553,113898
3847,524,14,130552,113892
3850,519,15,130538,113892
3852,521,14,130550,113888
3855,529,15,130550,113889
3857,525,15,130531,113889
3860,520,15,130544,113890
3862,515,15,130544,113898
3864,510,15,130539,113891
3867,503,15,130538,113891
3869,504,15,130531,113898
3872,504,15,130531,113900
3874,496,15,130534,113903
3877,493,15,130540,113903
3879,497,15,130556,113906
3881,500,15,130552,113902
3885,497,15,130552,113905
3887,501,15,130559,113905
3890,507,15,130568,113910
3892,505,15,130568,113908
3895,503,15,130558,113913
3897,503,15,130568,113913
3900,520,15,130567,113913
3902,522,15,130565,113923
3904,513,15,130580,113909
3907,513,15,130559,113916
3909,515,15,130569,113916
3912,512,15,130570,113913
3914,504,15,130585,113918
3917,503,15,130568,113919
3919,502,15,130600,113919
3921,502,15,130571,113923
3924,506,15,130579,113917
3927,497,15,130600,113917
3930,498,15,130574,113912
3932,497,15,130586,113916
3935,500,15,130572,113914
3937,505,15,130585,113912
3940,510,15,130583,113912
3942,511,15,130578,113924
3944,506,15,130599,113917
3947,505,16,130580,113920
3949,505,15,130586,113926
3952,506,15,130596,113921
3954,500,15,130592,113927
3957,497,15,130605,113930
3959,502,15,130580,113921
3961,501,16,130586,113923
3964,494,16,130598,113929
3966,495,15,130602,113926
3970,495,15,130576,113921
3972,502,16,130580,113925
3975,504,15,130590,113917
3977,502,15,130587,113920
3980,503,16,130593,113922
3982,501,15,130576,113914
3984,501,15,130574,113913
3987,511,16,130583,113911
3989,520,16,130588,113911
3992,520,15,130573,113907
3994,512,15,130571,113907
3997,509,16,130584,113906
3999,507,16,130581,113902
4001,509,16,130588,113905
4004,512,16,130566,113904
4006,510,16,130572,113910
4009,515,16,130575,113908
4012,518,16,130570,113906
4015,515,16,130583,113910
4017,518,16,130578,113906
4020,521,16,130580,113915
4022,514,16,130578,113909
4024,512,16,130579,113917
4027,509,16,130579,113916
4029,513,16,130575,113915
4032,513,16,130582,113904
4034,512,16,130583,113915
4037,517,16,130578,113916
4039,515,16,130581,113904
4041,511,16,130591,113914
4044,509,16,130580,113914
4046,503,16,130590,113918
4049,502,16,130593,113913
4051,512,16,130581,113910
4055,518,16,130586,113912
4057,516,16,130596,113923
4060,519,16,130600,113925
4062,517,16,130589,113915
4064,510,16,130582,113916
4067,508,16,130589,113918
4069,511,16,130591,113925
4072,518,16,130596,113919
4074,519,16,130584,113918
4077,511,16,130584,113910
4079,507,16,130589,113911
4081,513,16,130584,113913
4084,506,16,130583,113916
4086,509,16,130587,113916
4089,516,16,130580,113902
4091,518,16,130578,113917
4094,510,16,130577,113898
4097,506,17,130568,113905
4100,512,16,130565,113912
4102,506,16,130566,113906
4104,507,17,130570,113905
4107,510,17,130568,113902
4109,511,16,130571,113904
4112,502,17,130551,113895
4114,504,17,130564,113903
4117,510,17,130558,113894
4119,513,17,130554,113893
4121,510,17,130548,113894
4124,507,17,130554,113898
4126,505,17,130558,113892
4129,500,17,130557,113884
4131,504,17,130563,113900
4134,512,17,130563,113888
4136,512,17,130559,113897
4140,518,17,130560,113890
4142,513,17,130558,113900
4144,514,17,130575,113898
4147,521,17,130577,113903
4149,525,17,130570,113906
4152,518,17,130568,113908
4154,510,17,130577,113913
4157,512,17,130577,113903
4159,510,17,130578,113904
4161,513,17,130569,113904
4164,506,17,130584,113915
4166,506,17,130583,113909
4169,507,17,130585,113902
4171,509,17,130579,113901
4174,505,18,130581,113912
4176,511,17,130582,113912
4179,515,17,130582,113921
4182,513,17,130575,113906
4184,512,18,130570,113906
4187,505,18,130577,113902
4189,503,18,130567,113900
4192,507,18,130570,113904
4194,517,18,130573,113892
4197,517,18,130573,113917
4199,513,18,130566,113893
4201,516,18,130567,113893
4204,510,18,130567,113901
4206,511,18,130567,113896
4209,513,18,130570,113894
4211,512,18,130562,113895
4214,508,18,130565,113901
4216,512,18,130561,113893
4219,516,18,130561,113904
4221,516,18,130572,113896
4224,517,18,130566,113896
4227,516,18,130581,113908
4229,511,18,130581,113905
4232,508,18,130572,113899
4234,512,18,130576,113902
4237,510,18,130575,113902
4239,510,18,130575,113900
4241,515,18,130575,113899
4244,518,18,130576,113899
4246,518,18,130582,113907
4249,508,18,130580,113896
4251,509,18,130580,113896
4254,513,18,130574,113902
4256,507,18,130575,113903
4259,503,18,130577,113903
4261,512,18,130573,113896
4263,511,18,130573,113896
4267,505,18,130567,113902
4269,502,18,130567,113886
4272,507,19,130564,113894
4274,507,19,130565,113894
4277,511,19,130571,113893
4279,512,19,130571,113893
4281,504,19,130563,113892
4284,498,19,130564,113892
4286,500,19,130569,113895
4289,503,19,130554,113905
4291,500,19,130554,113891
4294,504,19,130571,113891
4296,511,19,130571,113893
4299,512,19,130571,113892
4301,507,19,130559,113892
4303,501,19,130573,113899
4306,507,19,130573,113895
4308,509,19,130568,113898
4312,508,19,130577,113898
4314,500,19,130577,113894
4317,498,19,130584,113894
4319,498,19,130595,113908
4321,498,19,130584,113911
4324,505,19,130584,113904
4326,505,19,130576,113903
4329,505,19,130586,113903
4331,504,19,130550,113905
4334,505,19,130550,113900
4336,521,19,130586,113899
4339,532,19,130581,113901
4341,535,19,130553,113901
4343,531,19,130581,113902
4346,533,19,130581,113904
4348,535,19,130579,113901
4352,537,19,130578,113899
4354,544,19,130583,113901
4357,548,19,130571,113901
4359,550,19,130578,113894
4361,564,19,130578,113895
4364,564,19,130565,113904
4366,560,20,130576,113898
4369,557,20,130577,113898
4371,541,20,130577,113903
4374,534,20,130574,113903
4376,527,20,130574,113906
4379,504,20,130584,113906
4381,499,20,130577,113909
4383,489,20,130589,113910
4386,489,20,130579,113915
4388,490,20,130584,113915
4391,489,20,130597,113916
4393,482,20,130610,113916
4397,482,20,130591,113914
4399,487,20,130608,113914
4401,500,20,130591,113913
4404,500,20,130598,113911
4406,502,20,130591,113911
4409,500,20,130591,113911
4411,494,20,130619,113912
4414,494,20,130593,113912
4416,494,20,130598,113911
4419,497,20,130586,113911
4421,499,20,130590,113915
4423,495,20,130600,113907
4426,492,21,130581,113903
4428,490,20,130590,113898
4431,484,20,130604,113898
4433,485,20,130581,113905
4436,492,21,130578,113902
4439,495,21,130582,113901
4441,495,20,130578,113895
4444,499,21,130578,113898
4446,501,21,130574,113897
4449,493,21,130582,113902
4451,484,21,130588,113901
4454,485,20,130574,113903
4456,492,20,130568,113900
4459,500,21,130573,113900
4461,503,21,130576,113901
4463,507,21,130575,113898
4466,499,20,130576,113896
4468,495,21,130572,113898
4471,496,20,130577,113903
4473,506,20,130580,113893
4476,509,21,130571,113890
4478,509,21,130569,113894
4481,514,21,130581,113896
4484,521,21,130567,113896
4486,525,21,130578,113897
4489,527,21,130586,113906
4491,526,21,130589,113909
4494,526,21,130587,113902
4496,524,21,130594,113904
4499,516,21,130592,113914
4501,509,21,130582,113902
4503,505,21,130585,113907
4506,500,21,130590,113907
4508,493,21,130589,113903
4511,498,21,130583,113897
4513,508,21,130579,113909
4516,512,21,130580,113903
4518,512,21,130579,113898
4520,516,21,130586,113903
4524,513,21,130570,113893
4526,508,21,130576,113893
4529,508,21,130583,113896
4531,513,21,130572,113902
4534,518,21,130576,113899
4536,516,21,130568,113889
4539,517,21,130570,113896
4541,514,21,130564,113886
4543,516,21,130566,113887
4546,522,21,130572,113887
4548,524,21,130567,113891
4551,516,21,130559,113889
4553,517,21,130569,113889
4556,521,21,130571,113898
4558,528,21,130554,113887
4560,532,21,130570,113886
4563,528,21,130556,113885
4566,524,21,130558,113890
4569,517,21,130561,113896
4571,519,21,130561,113888
4574,527,21,130571,113888
4576,536,22,130574,113894
4579,532,21,130566,113896
4581,528,22,130574,113889
4583,527,21,130570,113874
4586,520,21,130563,113897
4588,520,22,130579,113897
4591,515,21,130574,113897
4593,524,22,130574,113902
4596,528,22,130575,113878
4598,526,21,130576,113905
4600,529,22,130561,113897
4603,515,22,130562,113868
4605,506,22,130573,113864
4609,504,22,130569,113898
4611,510,22,130566,113894
4614,512,21,130562,113897
4616,525,22,130564,113895
4619,531,22,130564,113870
4621,532,22,130550,113891
4623,535,22,130552,113886
4626,518,22,130541,113870
4628,509,22,130542,113869
4631,507,22,130542,113878
4633,510,22,130537,113881
4636,510,22,130538,113878
4638,520,22,130539,113877
4640,525,22,130538,113873
4643,527,22,130531,113882
4645,530,22,130535,113875
4648,532,22,130538,113873
4651,535,22,130536,113876
4654,531,22,130536,113888
4656,518,22,130527,113874
4659,514,22,130536,113874
4661,504,22,130537,113879
4663,504,22,130536,113878
4666,506,22,130544,113880
4668,505,23,130543,113881
4671,499,22,130534,113874
4673,492,23,130531,113883
4676,495,22,130544,113884
4678,504,22,130538,113880
4680,503,22,130539,113880
4683,495,23,130540,113884
4685,497,22,130540,113888
4688,501,23,130549,113882
4690,502,23,130542,113886
4694,499,23,130535,113891
4696,505,23,130549,113886
4699,509,23,130549,113902
4701,509,23,130549,113884
4703,511,23,130548,113884
4706,508,23,130555,113897
4708,502,23,130555,113895
4711,497,23,130557,113885
4713,502,23,130557,113897
4716,504,23,130557,113897
4718,504,23,130552,113885
4720,508,23,130552,113890
4723,511,23,130549,113887
4725,509,23,130559,113887
4728,501,23,130556,113884
4730,504,23,130556,113884
4733,509,23,130548,113885
4736,504,23,130558,113888
4739,500,23,130554,113888
4741,512,23,130560,113885
4743,514,23,130560,113885
4746,506,23,130550,113879
4748,498,23,130547,113879
4751,500,23,130555,113880
4753,504,23,130555,113874
4756,509,23,130546,113882
4758,515,23,130536,113872
4760,522,23,130536,113879
4763,527,23,130547,113879
4765,523,23,130548,113877
4768,507,23,130548,113882
4770,504,23,130539,113882
4773,507,24,130539,113878
4775,507,23,130551,113878
4779,504,24,130556,113879
4781,507,24,130556,113886
4783,508,23,130557,113885
4786,503,24,130555,113885
4788,502,24,130569,113887
4791,498,24,130569,113890
4793,501,24,130565,113895
4796,507,24,130564,113891
4798,507,24,130580,113891
4800,504,24,130568,113903
4803,501,24,130568,113895
4805,496,24,130581,113899
4808,494,24,130576,113899
4810,497,24,130583,113895
4813,514,24,130583,113895
4815,515,24,130579,113895
4818,511,24,130584,113899
4820,510,24,130582,113899
4823,513,24,130578,113903
4826,506,24,130578,113896
4828,507,24,130591,113893
4831,511,24,130578,113893
4833,512,24,130579,113894
4836,507,24,130579,113888
4838,507,24,130583,113894
4840,519,24,130575,113894
4843,520,24,130552,113894
4845,515,24,130568,113894
4848,507,24,130568,113893
4850,507,24,130568,113898
4853,508,24,130567,113890
4855,511,24,130570,113890
4858,510,24,130573,113890
4860,513,24,130572,113887
4862,512,24,130560,113884
4866,504,24,130560,113887
4868,506,24,130569,113887
4871,512,24,130559,113881
4873,516,24,130559,113882
4876,515,24,130558,113883
4878,515,24,130565,113885
4880,523,24,130556,113885
4883,523,24,130558,113882
4885,518,24,130574,113886
4888,514,24,130569,113891
4890,514,24,130581,113889
4893,514,24,130568,113889
4895,516,24,130566,113886
4898,519,24,130569,113894
4900,518,24,130581,113892
4902,512,24,130581,113886
4905,504,24,130564,113888
4908,496,24,130566,113889
4911,494,24,130577,113891
4913,495,24,130579,113892
4916,502,24,130570,113891
4918,521,24,130559,113886
4920,526,24,130560,113885
4923,527,24,130552,113881
4925,523,24,130553,113887
4928,520,25,130559,113881
4930,519,24,130570,113881
4933,512,24,130567,113888
4935,509,24,130554,113880
4938,514,24,130559,113880
4940,522,24,130562,113884
4942,521,24,130566,113875
4945,518,25,130561,113880
4947,516,24,130562,113879
4951,509,24,130564,113883
4953,506,24,130566,113876
4956,504,24,130556,113881
4958,504,24,130558,113877
4960,504,24,130559,113880
4963,510,25,130562,113874
4965,510,24,130556,113880
4968,510,24,130549,113881
4970,515,25,130557,113872
4973,519,24,130557,113881
4975,518,24,130559,113880
4978,512,24,130560,113882
4980,512,24,130553,113882
4982,515,25,130563,113883
4985,519,25,130551,113875
4987,518,25,130560,113871
4990,505,24,130564,113873
4993,506,25,130542,113877
4996,510,25,130559,113881
4998,513,25,130554,113875
5000,511,25,130560,113873
5003,512,25,130548,113873
5005,512,25,130551,113875
5008,513,25,130549,113872
5010,508,25,130558,113878
5013,508,25,130555,113874
5015,507,25,130550,113876
5018,510,25,130564,113882
5020,509,25,130563,113873
5022,512,25,130571,113879
5025,506,25,130552,113883
5027,498,25,130558,113884
5030,498,25,130549,113875
5032,509,25,130563,113878
5036,515,25,130564,113882
5038,512,25,130558,113877
5040,504,25,130548,113876
5043,500,25,130558,113872
5045,499,25,130545,113873
5048,504,25,130550,113875
5050,506,25,130547,113871
5053,504,25,130538,113875
5055,509,25,130545,113872
5058,515,25,130540,113865
5060,518,25,130544,113875
5062,523,25,130555,113860
5065,526,25,130543,113880
5067,532,25,130555,113885
5070,533,25,130547,113875
5072,545,25,130554,113881
5075,555,25,130554,113856
5078,561,25,130552,113881
5080,573,25,130550,113879
5083,570,25,130549,113881
5085,566,25,130559,113855
5088,557,25,130559,113884
5090,546,25,130558,113884
5093,530,25,130555,113887
5095,506,25,130556,113891
5098,503,25,130561,113857
5100,497,26,130561,113885
5102,501,25,130564,113885
5105,503,25,130569,113882
5107,497,25,130565,113890
5110,491,25,130565,113890
5112,483,26,130576,113885
5115,480,25,130574,113889
5117,480,25,130575,113895
5120,488,25,130572,113895
5123,491,25,130581,113893
5125,490,25,130583,113894
5128,494,25,130576,113893
5130,509,26,130586,113899
5133,512,25,130586,113904
5135,506,26,130572,113889
5138,504,25,130578,113889
5140,499,26,130584,113900
5142,502,26,130579,113893
5145,507,26,130589,113893
5147,506,26,130584,113895
5150,499,26,130581,113893
5152,492,25,130580,113909
5155,488,26,130588,113909
5157,498,26,130597,113895
5159,500,26,130597,113898
5163,499,26,130589,113908
5165,500,26,130584,113900
5168,504,26,130584,113898
5170,507,26,130586,113890
5173,511,26,130586,113910
5175,509,26,130578,113890
5178,511,26,130578,113890
5180,511,26,130575,113894
5182,514,26,130575,113883
5185,520,26,130566,113884
5187,514,26,130565,113887
5190,509,26,130574,113884
5192,504,26,130563,113879
5195,508,26,130569,113880
5197,521,26,130562,113878
5199,527,26,130562,113873
5202,529,26,130557,113873
5204,524,26,130555,113873
5208,506,26,130554,113880
5210,504,26,130554,113877
5213,505,26,130558,113881
5215,501,26,130561,113883
5218,501,26,130559,113883
5220,503,26,130560,113876
5222,506,26,130560,113884
5225,510,26,130561,113885
5227,511,26,130561,113883
5230,510,26,130560,113883
5232,505,26,130572,113883
5235,506,26,130558,113890
5237,511,26,130558,113884
5239,506,26,130565,113887
5242,504,26,130564,113882
5244,507,26,130564,113882
5248,512,26,130563,113886
5250,508,26,130563,113887
5253,509,26,130568,113879
5255,508,26,130564,113879
5258,514,26,130563,113883
5260,517,26,130571,113882
5262,518,26,130566,113882
5265,523,26,130563,113881
5267,523,26,130564,113881
5270,525,26,130564,113877
5272,520,26,130562,113877
5275,512,26,130562,113878
5277,514,26,130570,113878
5279,521,26,130569,113887
5282,525,26,130569,113881
5284,523,26,130573,113884
5287,519,26,130577,113884
5289,516,26,130584,113886
5293,511,26,130590,113887
5295,514,26,130590,113894
5298,516,26,130585,113883
5300,514,26,130543,113883
5302,517,26,130543,113892
5305,527,26,130589,113893
5307,530,26,130580,113888
5310,524,26,130580,113888
5312,516,26,130578,113900
5315,517,26,130578,113888
5317,526,26,130576,113884
5319,528,26,130555,113884
5322,524,26,130579,113884
5324,523,26,130579,113881
5327,523,26,130565,113887
5329,519,26,130568,113889
5332,521,27,130563,113889
5335,521,26,130570,113885
5338,521,26,130570,113875
5340,521,26,130556,113872
5342,515,26,130548,113872
5345,515,27,130549,113870
5347,508,27,130539,113876
5350,507,26,130539,113865
5352,507,26,130542,113875
5355,507,26,130532,113875
5357,508,26,130534,113869
5359,510,27,130542,113869
5362,510,27,130553,113876
5364,503,27,130553,113861
5367,491,27,130536,113876
5369,491,27,130533,113876
5372,497,27,130539,113876
5374,504,26,130539,113874
5378,507,27,130536,113881
5380,506,27,130554,113878
5382,500,26,130554,113880
5385,492,27,130543,113880
5387,486,27,130542,113880
5390,483,27,130564,113885
5392,482,26,130532,113882
5395,491,27,130547,113881
5397,509,27,130538,113879
5399,510,27,130554,113880
5402,505,27,130540,113884
5404,500,27,130558,113882
5407,502,27,130556,113881
5409,501,26,130567,113882
5412,502,27,130567,113880
5414,508,26,130553,113883
5417,510,27,130563,113886
5420,516,26,130552,113895
5422,513,27,130564,113886
5425,510,27,130570,113890
5427,507,27,130566,113890
5430,500,27,130568,113890
5432,497,26,130566,113890
5435,497,27,130562,113896
5437,499,26,130564,113884
5439,506,27,130562,113889
5442,514,26,130571,113891
5444,511,27,130570,113889
5447,507,27,130552,113882
5449,510,27,130561,113884
5452,511,27,130558,113882
5454,509,26,130558,113882
5457,505,27,130551,113883
5459,516,27,130559,113885
5462,519,27,130563,113877
5465,516,27,130561,113876
5467,510,27,130554,113873
5470,509,27,130541,113869
5472,508,27,130545,113872
5475,511,27,130547,113874
5477,515,27,130544,113873
5479,513,27,130552,113867
5482,515,27,130540,113870
5484,516,27,130547,113872
5487,517,27,130539,113868
5489,512,27,130552,113870
5492,512,27,130546,113868
5494,509,27,130535,113867
5497,511,27,130538,113879
5499,510,27,130550,113868
5501,514,27,130553,113868
5505,504,27,130544,113875
5507,499,27,130548,113880
5510,498,27,130553,113877
5512,497,27,130565,113878
5515,502,27,130552,113880
5517,505,27,130563,113882
5519,512,27,130561,113875
5522,517,27,130564,113877
5524,519,27,130568,113873
5527,511,27,130555,113885
5529,514,27,130566,113887
5532,519,27,130564,113877
5534,520,27,130567,113880
5537,515,27,130560,113879
5539,510,27,130560,113883
5541,507,27,130556,113878
5544,504,27,130554,113861
5547,502,27,130565,113880
5550,509,27,130542,113881
5552,511,27,130554,113881
5555,515,27,130556,113873
5557,526,27,130545,113871
5559,529,27,130543,113847
5562,523,27,130554,113878
5564,518,27,130559,113887
5567,511,27,130544,113874
5569,508,27,130551,113869
5572,512,27,130551,113852
5574,509,27,130556,113871
5577,513,27,130545,113867
5579,512,27,130553,113853
5581,506,27,130547,113850
5584,501,27,130543,113868
5586,496,27,130548,113870
5590,494,27,130543,113870
5592,508,27,130549,113872
5595,515,27,130549,113856
5597,519,27,130542,113863
5599,523,27,130543,113861
5602,521,27,130537,113865
5604,524,27,130549,113860
5607,523,27,130544,113862
5609,516,27,130532,113865
5612,513,27,130532,113865
5614,515,27,130548,113861
5617,518,27,130548,113859
5619,520,27,130534,113869
5621,514,27,130553,113872
5624,509,27,130537,113863
5626,515,28,130538,113852
5629,521,27,130545,113860
5632,521,27,130537,113861
5635,515,27,130541,113861
5637,512,27,130550,113859
5639,511,27,130550,113866
5642,509,27,130544,113859
5644,510,27,130538,113861
5647,515,28,130543,113866
5649,519,27,130543,113868
5652,523,28,130546,113867
5654,522,27,130556,113862
5657,519,28,130556,113867
5659,514,27,130551,113877
5661,510,28,130547,113877
5664,515,28,130551,113871
5666,513,27,130551,113871
5669,510,28,130546,113857
5671,513,27,130550,113870
5675,514,28,130554,113873
5677,520,28,130551,113866
5679,519,28,130551,113872
5682,513,28,130550,113874
5684,512,28,130554,113874
5687,512,28,130553,113874
5689,503,28,130553,113864
5692,504,28,130557,113869
5694,504,28,130547,113869
5697,504,28,130551,113865
5699,501,28,130557,113862
5701,502,28,130557,113867
5704,505,28,130544,113872
5706,507,28,130544,113869
5709,506,28,130540,113862
5711,503,28,130548,113862
5714,503,28,130538,113869
5716,496,28,130538,113858
5719,490,28,130545,113864
5722,488,28,130545,113857
5724,491,28,130544,113857
5727,498,28,130530,113867
5729,497,28,130530,113863
5732,502,28,130538,113863
5734,505,28,130535,113863
5737,507,28,130547,113862
5739,504,28,130547,113861
5741,507,28,130535,113860
5744,509,28,130544,113855
5746,509,28,130534,113855
5749,502,28,130538,113859
5751,504,28,130538,113860
5754,509,28,130536,113857
5756,509,28,130541,113857
5758,504,28,130542,113857
5762,498,28,130542,113855
5764,496,28,130540,113866
5767,496,28,130549,113866
5769,497,28,130554,113865
5772,508,28,130554,113866
5774,525,28,130545,113861
5777,542,28,130544,113859
5779,547,28,130553,113859
5781,551,28,130514,113870
5784,546,28,130514,113867
5786,551,28,130548,113863
5789,554,28,130526,113863
5791,553,28,130565,113865
5794,559,28,130565,113861
5796,555,28,130547,113876
5798,545,28,130555,113869
5801,538,28,130548,113869
5804,525,28,130568,113871
5807,499,28,130568,113872
5809,499,28,130552,113869
5812,486,28,130555,113866
5814,484,28,130563,113860
5817,481,28,130542,113860
5819,484,28,130549,113875
5821,488,28,130549,113864
5824,492,28,130545,113867
5826,491,28,130555,113868
5829,489,28,130542,113868
5831,492,28,130550,113869
5834,496,28,130550,113864
5836,498,28,130556,113864
5838,503,28,130551,113855
5841,503,28,130550,113862
5843,506,28,130542,113862
5847,505,28,130551,113859
5849,498,28,130559,113867
5852,499,29,130541,113868
5854,499,28,130555,113869
5857,504,28,130554,113869
5859,506,29,130553,113865
5861,504,29,130572,113869
5864,503,29,130550,113875
5866,502,29,130572,113875
5869,500,28,130579,113871
5871,495,29,130579,113881
5874,495,29,130563,113874
5876,493,29,130579,113873
5878,494,28,130574,113878
5881,496,28,130567,113874
5883,493,28,130586,113874
5886,495,28,130562,113877
5889,504,28,130567,113873
5892,511,28,130574,113877
5894,510,29,130584,113882
5897,509,29,130582,113883
5899,510,28,130568,113884
5901,507,29,130579,113884
5904,510,29,130583,113883
5906,516,29,130589,113883
5909,518,29,130585,113885
5911,506,29,130576,113889
5914,507,29,130583,113888
5916,506,28,130583,113879
5918,505,28,130575,113882
5921,508,28,130568,113880
5923,509,28,130580,113873
5926,510,28,130564,113873
5928,508,28,130568,113865
5932,505,28,130560,113866
5934,503,28,130555,113869
5937,502,28,130569,113871
5939,511,28,130566,113860
5941,516,28,130555,113867
5944,524,28,130549,113866
5946,528,28,130550,113864
5949,525,28,130563,113861
5951,516,28,130557,113856
5954,513,28,130545,113864
5956,511,28,130545,113860
5958,511,29,130547,113857
5961,518,28,130555,113864
5963,519,28,130551,113861
5966,519,28,130551,113863
5968,523,28,130558,113864
5971,527,28,130561,113864
5974,526,28,130563,113862
5977,528,28,130573,113872
5979,527,28,130552,113872
5981,524,28,130565,113874
5984,518,28,130575,113879
5986,521,28,130567,113878
5989,528,28,130576,113880
5991,530,28,130579,113885
5994,524,28,130591,113891
5996,522,28,130595,113888
5998,528,28,130588,113895
6001,524,28,130593,113893
6003,525,28,130600,113898
6006,530,28,130600,113895
6008,530,28,130595,113896
6011,522,28,130592,113894
6013,521,28,130599,113902
6017,523,28,130595,113893
6019,519,28,130591,113895
6021,525,29,130597,113899
6024,531,28,130585,113888
6026,532,28,130592,113897
6029,520,28,130578,113893
6031,516,29,130577,113881
6034,516,29,130568,113886
6036,517,29,130573,113875
6038,514,28,130563,113885
6041,512,28,130554,113887
6043,505,28,130560,113874
6046,503,29,130553,113874
6048,511,28,130547,113866
6051,517,28,130543,113841
6053,514,29,130539,113862
6056,517,28,130522,113863
6059,511,29,130524,113853
6061,513,29,130519,113855
6064,518,29,130515,113861
6066,522,29,130522,113856
6069,515,28,130511,113856
6071,504,29,130505,113850
6074,504,29,130505,113833
6076,500,29,130512,113853
6078,503,28,130507,113849
6081,497,29,130495,113856
6083,497,28,130518,113841
6086,494,28,130504,113857
6088,496,28,130509,113858
6091,495,28,130516,113854
6093,506,29,130515,113860
6096,511,29,130516,113860
6098,511,29,130521,113861
6100,514,29,130521,113859
6104,515,29,130523,113863
6106,505,29,130523,113862
6109,494,29,130522,113868
6111,496,29,130540,113867
6114,500,29,130531,113874
6116,499,29,130539,113868
6118,497,29,130526,113868
6121,495,29,130533,113860
6123,493,29,130532,113867
6126,491,28,130548,113880
6128,489,29,130527,113880
6131,496,29,130539,113864
6133,507,29,130534,113876
6136,508,29,130536,113876
6138,516,29,130530,113862
6140,518,29,130530,113860
6144,513,28,130528,113857
6146,510,29,130529,113857
6149,508,29,130532,113872
6151,506,29,130532,113845
6154,510,28,130531,113857
6156,512,28,130517,113854
6158,509,29,130521,113854
6161,508,29,130521,113845
6163,506,29,130521,113849
6166,510,29,130524,113851
6168,513,28,130518,113851
6171,516,29,130515,113843
6173,513,29,130515,113853
6176,515,29,130525,113845
6178,517,29,130520,113845
6180,518,29,130515,113845
6183,514,29,130525,113844
6185,509,29,130525,113849
6189,510,29,130516,113845
6191,509,29,130528,113845
6194,509,29,130520,113845
6196,506,29,130520,113839
6198,499,28,130515,113846
6201,495,29,130522,113844
6203,497,29,130510,113844
6206,503,29,130515,113849
6208,502,29,130515,113845
6211,508,29,130517,113844
6213,513,29,130511,113844
6216,515,29,130516,113840
6218,508,29,130516,113850
6220,508,29,130513,113840
6223,510,29,130522,113847
6225,509,29,130522,113847
6228,504,29,130525,113843
6231,506,29,130525,113842
6234,510,29,130521,113853
6236,510,29,130524,113853
6238,507,29,130522,113850
6241,505,29,130522,113839
6243,501,29,130516,113846
6246,498,29,130499,113846
6248,500,29,130499,113845
6251,513,29,130527,113848
6253,522,29,130527,113844
6256,525,29,130542,113845
6258,521,29,130496,113845
6260,515,29,130537,113851
6263,517,29,130537,113846
6265,514,29,130526,113843
6268,506,29,130533,113843
6270,499,29,130529,113847
6274,501,29,130527,113848
6276,501,29,130527,113841
6278,500,28,130491,113841
6281,505,28,130491,113844
6283,517,29,130526,113841
6286,523,29,130528,113841
6288,524,29,130529,113845
6291,516,29,130529,113845
6293,516,29,130530,113845
6296,524,29,130528,113846
6298,525,29,130519,113846
6300,520,29,130519,113836
6303,520,29,130521,113843
6305,522,29,130517,113833
6308,519,29,130520,113833
6310,512,29,130519,113841
6313,510,29,130519,113837
6316,512,29,130521,113837
6318,517,29,130526,113841
6321,517,29,130522,113835
6323,520,29,130516,113835
6326,518,29,130521,113843
6328,511,29,130515,113848
6331,510,29,130515,113845
6333,510,29,130529,113850
6336,512,29,130518,113850
6338,515,29,130518,113845
6340,512,29,130543,113840
6343,513,29,130516,113838
6345,514,29,130521,113838
6348,514,29,130543,113847
6350,508,29,130543,113850
6353,507,29,130523,113845
6355,505,29,130550,113845
6358,503,29,130531,113840
6361,506,29,130523,113839
6363,499,29,130539,113839
6366,498,29,130519,113848
6368,496,29,130536,113848
6371,499,29,130521,113842
6373,502,29,130530,113849
6376,500,28,130538,113853
6378,505,29,130532,113856
6380,511,29,130528,113851
6383,512,29,130534,113850
6385,508,28,130545,113854
6388,499,28,130540,113852
6390,493,28,130536,113858
6393,491,28,130536,113850
6395,491,28,130538,113849
6397,499,28,130533,113855
6401,510,28,130546,113856
6403,514,28,130537,113851
6406,501,28,130532,113859
6408,501,28,130544,113853
6411,503,28,130539,113853
6413,502,28,130539,113853
6416,504,28,130534,113850
6418,503,28,130536,113853
6420,504,28,130546,113859
6423,509,28,130535,113854
6425,515,28,130540,113855
6428,521,28,130546,113854
6430,520,28,130535,113848
6433,518,28,130536,113856
6435,515,28,130546,113843
6437,507,28,130550,113859
6440,502,28,130537,113850
6443,500,28,130539,113856
6446,502,28,130535,113851
6448,500,28,130534,113849
6451,503,28,130543,113854
6453,505,28,130535,113852
6456,510,28,130541,113852
6458,515,28,130540,113854
6460,524,28,130542,113847
6463,523,28,130530,113850
6465,522,28,130544,113852
6468,524,28,130534,113845
6470,528,28,130539,113842
6473,539,28,130529,113850
6475,555,28,130532,113842
6477,566,28,130534,113852
6480,573,28,130538,113856
6482,568,28,130541,113853
6486,563,28,130530,113854
6488,541,28,130536,113844
6491,528,28,130538,113848
6493,514,28,130543,113855
6496,509,28,130543,113859
6498,497,28,130534,113848
6500,491,28,130543,113860
6503,492,28,130541,113855
6505,493,28,130549,113860
6508,485,28,130545,113853
6510,486,28,130550,113860
6513,489,28,130546,113852
6515,495,28,130546,113863
6517,499,28,130551,113846
6520,497,28,130547,113865
6522,499,28,130565,113865
6525,494,28,130550,113846
6528,486,28,130555,113869
6531,491,28,130567,113844
6533,497,28,130554,113879
6536,505,28,130559,113870
6538,510,28,130568,113853
6540,507,28,130567,113878
6543,508,28,130563,113873
6545,517,28,130566,113875
6548,518,28,130566,113848
6550,511,28,130558,113872
6553,506,28,130562,113867
6555,502,28,130564,113868
6557,496,28,130559,113870
6560,496,28,130551,113860
6562,499,28,130563,113857
6565,502,28,130552,113859
6567,500,28,130545,113861
6571,504,28,130547,113861
6573,508,28,130543,113861
6576,505,28,130543,113855
6578,504,28,130549,113848
6580,510,28,130543,113850
6583,508,28,130539,113858
6585,511,28,130532,113847
6588,516,28,130544,113847
6590,515,28,130539,113845
6593,508,28,130527,113845
6595,503,28,130536,113853
6597,503,28,130536,113844
6600,502,28,130521,113839
6602,504,28,130527,113842
6605,508,28,130522,113836
6607,514,28,130529,113844
6610,518,28,130521,113832
6612,516,28,130515,113842
6616,513,28,130515,113842
6618,510,28,130532,113836
6620,512,28,130526,113836
6623,518,28,130527,113841
6625,516,28,130527,113838
6628,514,28,130526,113846
6630,509,28,130523,113840
6633,512,28,130522,113829
6635,522,28,130517,113836
6637,527,28,130517,113841
6640,529,28,130524,113837
6642,524,28,130527,113837
6645,507,28,130537,113834
6647,507,28,130537,113840
6650,510,28,130522,113844
6652,506,28,130534,113841
6656,505,28,130527,113841
6658,507,28,130531,113841
6660,511,28,130531,113848
6663,516,28,130541,113852
6665,516,28,130541,113852
6668,511,28,130543,113852
6670,513,28,130543,113854
6673,517,28,130543,113851
6675,515,28,130538,113859
6677,511,28,130544,113859
6680,509,28,130549,113853
6682,508,28,130549,113853
6685,512,28,130536,113853
6687,514,28,130536,113859
6690,522,28,130556,113859
6692,525,27,130556,113859
6695,525,28,130563,113862
6697,517,28,130563,113863
6700,519,28,130557,113866
6703,522,28,130549,113863
6705,521,27,130555,113863
6708,515,28,130560,113862
6710,518,27,130560,113855
6713,522,27,130550,113855
6715,522,28,130542,113855
6717,517,28,130553,113859
6720,513,28,130553,113858
6722,507,28,130547,113855
6725,503,27,130516,113855
6727,505,28,130516,113856
6730,514,27,130504,113856
6732,515,27,130532,113848
6735,521,27,130532,113854
6737,522,28,130532,113854
6739,518,27,130527,113852
6743,506,27,130527,113852
6745,509,28,130530,113848
6748,512,27,130529,113848
6750,514,27,130529,113853
6753,508,27,130517,113853
6755,500,28,130528,113848
6757,494,27,130528,113848
6760,501,27,130528,113847
6762,507,27,130525,113852
6765,505,27,130507,113852
6767,499,27,130502,113854
6770,496,27,130502,113851
6772,506,27,130519,113850
6775,512,27,130516,113850
6777,513,27,130518,113845
6779,512,27,130518,113847
6782,513,27,130516,113848
6785,508,27,130517,113846
6788,502,27,130514,113846
6790,503,27,130512,113848
6793,504,28,130512,113848
6795,502,28,130512,113848
6797,502,28,130518,113855
6800,502,27,130522,113849
6802,503,27,130518,113849
6805,501,27,130518,113852
6807,495,27,130517,113849
6810,495,27,130517,113851
6812,495,27,130519,113849
6815,497,27,130511,113849
6817,501,27,130518,113842
6819,500,27,130535,113848
6822,502,27,130526,113858
6824,504,27,130532,113858
6828,504,27,130550,113857
6830,500,27,130550,113857
6833,501,27,130518,113854
6835,499,27,130554,113854
6837,498,27,130535,113854
6840,502,27,130531,113860
6842,501,27,130545,113860
6845,500,27,130537,113861
6847,496,27,130548,113853
6850,497,27,130536,113857
6852,501,27,130542,113856
6855,503,27,130552,113867
6857,509,27,130528,113867
6859,511,27,130551,113858
6862,510,27,130540,113858
6864,505,27,130549,113861
6867,497,27,130543,113857
6870,492,27,130543,113861
6873,491,27,130536,113854
6875,492,27,130540,113857
6877,499,27,130536,113850
6880,511,27,130541,113858
6882,516,27,130528,113853
6885,502,27,130528,113844
6887,502,27,130531,113854
6890,504,27,130521,113849
6892,505,27,130531,113842
6895,506,27,130523,113852
6897,507,27,130523,113845
6899,510,27,130529,113847
6902,516,27,130513,113840
6904,518,27,130523,113839
6907,520,27,130525,113846
6909,521,27,130523,113842
6913,520,27,130525,113844
6915,516,27,130533,113839
6917,508,27,130526,113841
6920,505,27,130519,113839
6922,505,27,130525,113844
6925,506,27,130519,113845
6927,502,27,130521,113838
6930,504,27,130524,113838
6932,509,27,130521,113835
6935,510,27,130523,113836
6937,507,27,130532,113837
6939,509,27,130529,113842
6942,505,27,130523,113838
6944,501,27,130538,113844
6947,505,27,130540,113844
6949,504,27,130531,113855
6952,508,27,130545,113851
6955,507,27,130535,113854
6957,506,27,130538,113854
6960,503,27,130545,113854
6962,507,27,130550,113861
6965,514,27,130558,113854
6967,516,27,130552,113859
6970,509,27,130547,113862
6972,506,27,130561,113863
6975,511,27,130550,113863
6977,509,27,130554,113862
6979,513,27,130545,113857
6982,518,27,130550,113860
6984,513,26,130554,113856
6987,509,27,130542,113860
6989,512,27,130550,113856
6992,516,27,130541,113857
6994,516,27,130546,113861
6996,516,26,130550,113844
7000,510,27,130551,113852
7002,506,27,130557,113861
7005,498,27,130549,113850
7007,500,27,130557,113856
7010,507,27,130543,113835
7012,506,27,130550,113864
7015,511,27,130545,113863
7017,508,27,130550,113860
7019,513,27,130556,113859
7022,518,27,130551,113860
7024,524,27,130552,113864
7027,518,27,130547,113856
7029,515,27,130552,113861
7032,516,27,130552,113844
7034,512,27,130548,113864
7036,515,27,130550,113861
7040,509,27,130544,113863
7042,507,27,130554,113851
7045,504,27,130546,113860
7047,506,27,130548,113859
7050,505,26,130548,113861
7052,520,27,130543,113859
7055,524,27,130539,113854
7057,525,27,130540,113860
7059,528,27,130540,113853
7062,531,27,130537,113858
7064,519,27,130543,113856
7067,505,27,130540,113855
7069,509,27,130552,113852
7072,516,27,130544,113856
7074,519,27,130556,113853
7076,513,27,130543,113850
7079,509,27,130548,113856
7081,510,27,130550,113855
7085,511,27,130552,113867
7087,506,27,130535,113867
7090,508,27,130551,113852
7092,510,27,130531,113855
7095,507,27,130531,113848
7097,507,27,130537,113848
7099,504,27,130538,113848
7102,499,26,130536,113847
7104,505,27,130532,113840
7107,510,27,130530,113851
7109,517,27,130539,113844
7112,514,27,130539,113856
7114,506,27,130523,113843
7116,509,27,130523,113838
7119,513,27,130528,113844
7121,510,27,130533,113844
7124,495,27,130527,113844
7127,495,27,130527,113841
7130,498,27,130520,113835
7132,496,27,130513,113823
7135,494,27,130516,113823
7137,495,27,130512,113827
7139,498,27,130512,113826
7142,504,26,130501,113825
7144,504,27,130510,113825
7147,499,27,130504,113823
7149,502,27,130504,113820
7152,508,27,130493,113817
7154,505,26,130492,113815
7156,499,27,130493,113815
7159,497,26,130490,113818
7161,495,27,130490,113813
7164,498,26,130493,113813
7166,500,26,130493,113819
7170,507,26,130499,113824
7172,510,27,130501,113824
7175,509,27,130510,113826
7177,503,27,130510,113827
7179,504,27,130510,113830
7182,507,26,130506,113829
7184,506,27,130515,113829
7187,502,26,130525,113837
7189,507,27,130525,113833
7192,520,26,130526,113840
7194,526,26,130529,113840
7196,526,26,130547,113832
7199,528,27,130547,113845
7201,528,26,130537,113839
7204,530,26,130547,113854
7206,537,27,130547,113854
7209,562,27,130547,113850
7212,566,27,130545,113850
7215,564,27,130540,113846
7217,564,27,130540,113843
7219,558,27,130542,113846
7222,547,27,130539,113846
7224,536,27,130542,113838
7227,503,27,130542,113838
7229,494,27,130540,113842
7232,492,27,130538,113844
7234,488,27,130539,113844
7236,481,26,130530,113846
7239,475,27,130530,113837
7241,470,27,130533,113833
7244,470,26,130523,113837
7246,480,27,130528,113835
7249,486,26,130523,113835
7251,489,26,130531,113831
7255,500,26,130531,113833
7257,500,26,130523,113838
7259,506,26,130532,113834
7262,507,27,130520,113834
7264,504,26,130541,113844
7267,506,27,130541,113836
7269,506,26,130536,113844
7272,507,27,130534,113849
7274,506,27,130544,113849
7276,503,27,130544,113848
7279,503,27,130536,113847
7281,509,27,130535,113847
7284,508,26,130541,113854
7286,500,26,130540,113847
7289,496,27,130540,113852
7291,496,26,130546,113839
7294,496,27,130534,113839
7297,500,27,130539,113845
7299,499,26,130556,113844
7302,501,27,130542,113848
7304,502,27,130556,113848
7307,502,27,130538,113848
7309,496,27,130564,113851
7312,498,27,130540,113848
7314,498,27,130566,113848
7316,497,27,130535,113847
7319,502,27,130535,113853
7321,511,27,130542,113850
7324,509,27,130550,113839
7326,505,27,130537,113847
7329,501,27,130537,113839
7331,494,27,130542,113842
7334,495,27,130529,113841
7336,493,26,130537,113835
7339,495,27,130531,113829
7342,494,27,130534,113831
7344,494,27,130517,113833
7347,498,27,130531,113837
7349,502,27,130531,113835
7352,506,27,130527,113833
7354,509,27,130522,113837
7356,509,27,130518,113826
7359,509,27,130529,113832
7361,505,27,130523,113835
7364,507,27,130525,113833
7366,505,27,130522,113833
7369,505,26,130528,113827
7371,509,26,130525,113826
7374,506,26,130525,113825
7376,508,26,130521,113830
7378,511,26,130528,113836
7382,512,27,130522,113837
7384,509,27,130542,113838
7387,512,26,130550,113845
7389,511,26,130538,113839
7392,509,26,130540,113843
7394,514,26,130552,113847
7396,517,27,130539,113850
7399,516,26,130541,113843
7401,517,26,130537,113846
7404,513,26,130549,113843
7406,508,26,130550,113851
7409,511,27,130553,113844
7411,510,27,130557,113856
7414,514,26,130558,113851
7416,518,27,130558,113855
7418,514,27,130562,113853
7421,513,26,130556,113847
7424,517,27,130555,113857
7427,523,26,130559,113848
7429,524,26,130558,113850
7432,518,26,130558,113860
7434,515,26,130563,113851
7436,515,26,130545,113857
7439,511,26,130544,113854
7441,517,26,130550,113849
7444,524,26,130548,113849
7446,524,26,130537,113845
7449,516,26,130533,113842
7451,513,26,130536,113848
7454,519,26,130532,113845
7456,516,27,130520,113840
7458,518,27,130527,113836
7461,522,26,130522,113836
7463,523,26,130520,113834
7467,510,27,130500,113835
7469,508,27,130503,113837
7472,510,27,130503,113828
7474,511,27,130500,113840
7476,512,26,130499,113817
7479,505,27,130496,113827
7481,500,26,130499,113829
7484,493,27,130497,113829
7486,494,27,130495,113833
7489,500,27,130494,113812
7491,499,26,130500,113834
7494,504,26,130496,113834
7496,499,27,130492,113840
7498,503,27,130503,113837
7501,508,27,130499,113839
7503,513,27,130510,113839
7506,507,27,130505,113837
7508,507,27,130505,113833
7512,507,27,130505,113810
7514,502,27,130497,113843
7516,502,27,130492,113834
7519,492,27,130495,113834
7521,493,27,130500,113832
7524,494,27,130495,113830
7526,495,27,130498,113827
7529,492,27,130497,113829
7531,498,27,130496,113833
7534,502,27,130499,113827
7536,506,27,130490,113828
7538,511,27,130490,113824
7541,515,27,130492,113824
7543,505,27,130485,113824
7546,492,27,130488,113826
7548,496,27,130488,113812
7552,499,27,130492,113821
7554,511,27,130487,113820
7556,509,27,130489,113834
7559,501,27,130496,113821
7561,496,27,130492,113821
7564,491,27,130502,113828
7566,492,27,130500,113821
7569,497,27,130500,113847
7571,498,27,130509,113819
7574,502,27,130509,113819
7576,501,27,130523,113841
7578,504,27,130523,113836
7581,509,27,130508,113829
7583,503,27,130513,113842
7586,497,27,130518,113840
7588,498,27,130520,113834
7591,503,27,130523,113836
7593,506,27,130507,113839
7596,503,27,130515,113839
7599,502,27,130520,113846
7601,501,27,130520,113840
7604,506,27,130520,113834
7606,508,27,130518,113834
7609,512,27,130519,113836
7611,509,27,130519,113843
7614,510,27,130517,113840
7616,507,27,130514,113833
7618,508,27,130505,113833
7621,506,27,130515,113837
7623,505,27,130515,113832
7626,509,27,130518,113827
7628,510,27,130506,113827
7631,506,27,130512,113832
7633,496,27,130512,113829
7635,494,27,130510,113829
7639,498,27,130514,113828
7641,500,27,130507,113828
7644,499,27,130515,113823
7646,502,27,130515,113827
7649,509,27,130510,113839
7651,510,27,130509,113839
7654,515,27,130516,113830
7656,512,27,130516,113834
7658,512,27,130516,113830
7661,510,27,130516,113840
7663,511,27,130521,113840
7666,512,27,130515,113837
7668,505,27,130515,113835
7671,511,27,130525,113838
7673,513,27,130535,113838
7675,514,27,130533,113846
7678,504,27,130533,113839
7681,502,27,130536,113849
7684,501,27,130532,113845
7686,500,27,130546,113845
7689,497,27,130530,113844
7691,498,27,130530,113842
7694,497,27,130541,113853
7696,496,27,130522,113853
7698,495,27,130541,113848
7701,511,27,130541,113841
7703,513,27,130547,113846
7706,506,27,130538,113839
7708,501,27,130546,113839
7711,506,27,130549,113851
7713,514,27,130549,113844
7715,508,27,130508,113844
7718,505,27,130508,113845
7720,513,27,130536,113849
7724,517,27,130538,113849
7726,516,27,130543,113843
7729,505,27,130543,113839
7731,507,27,130538,113844
7734,512,27,130536,113844
7736,511,27,130536,113845
7738,507,27,130541,113845
7741,501,27,130536,113842
7743,500,27,130538,113844
7746,507,27,130538,113841
7748,503,27,130537,113840
7751,501,27,130535,113840
7753,504,27,130535,113845
7755,506,27,130536,113843
7758,504,27,130536,113845
7760,506,27,130546,113845
7763,510,27,130544,113848
7766,508,27,130544,113850
7769,507,27,130543,113849
7771,507,27,130550,113848
7774,521,27,130544,113848
7776,524,27,130541,113851
7778,519,27,130554,113848
7781,519,27,130548,113849
7783,521,28,130542,113849
7786,517,27,130538,113848
7788,509,27,130562,113851
7791,507,28,130542,113849
7793,509,27,130543,113849
7795,512,28,130551,113853
7798,513,28,130551,113856
7800,517,28,130537,113841
7803,512,27,130561,113841
7805,501,28,130535,113847
7809,504,28,130534,113846
7811,509,28,130529,113845
7814,510,28,130537,113840
7816,508,28,130539,113840
7818,506,28,130531,113838
7821,508,28,130526,113842
7823,510,28,130535,113825
7826,508,28,130525,113836
7828,499,28,130527,113832
7831,494,28,130526,113834
7833,492,28,130521,113840
7835,494,28,130513,113828
7838,503,28,130519,113828
7840,506,28,130524,113823
7843,502,28,130511,113828
7845,498,28,130510,113826
7848,500,28,130516,113821
7851,501,27,130518,113818
7854,503,28,130510,113822
7856,503,28,130508,113822
7858,505,28,130508,113815
7861,512,28,130504,113822
7863,520,28,130504,113816
7866,526,27,130504,113818
7868,520,28,130501,113823
7871,511,28,130512,113818
7873,503,28,130508,113822
7875,500,28,130506,113820
7878,499,27,130493,113820
7880,500,28,130502,113820
7883,503,28,130504,113819
7885,502,28,130510,113811
7888,497,28,130515,113820
7890,499,27,130503,113817
7894,501,27,130518,113818
7896,499,27,130517,113819
7898,505,27,130508,113828
7901,510,27,130513,113820
7903,511,28,130521,113824
7906,501,28,130525,113831
7908,501,28,130518,113827
7911,504,27,130526,113823
7913,510,28,130516,113829
7915,512,27,130522,113844
7918,509,28,130523,113828
7920,505,28,130529,113832
7923,498,27,130519,113832
7925,497,28,130518,113822
7928,501,28,130515,113825
7930,500,28,130523,113823
7933,505,27,130531,113830
7936,506,28,130520,113829
7938,504,28,130520,113829
7941,497,28,130515,113831
7943,500,28,130532,113839
7946,508,27,130535,113834
7948,509,27,130532,113842
7951,502,27,130531,113847
7953,500,27,130535,113849
7955,507,28,130535,113841
7958,507,27,130545,113847
7960,512,27,130548,113857
7963,522,27,130561,113853
7965,526,27,130559,113861
7968,524,27,130560,113863
7970,530,28,130569,113867
7973,534,28,130585,113865
7975,543,27,130587,113854
7977,549,28,130595,113884
7981,560,28,130595,113888
7983,579,28,130606,113898
7986,579,28,130605,113871
7988,567,28,130614,113902
7991,555,28,130611,113900
7993,542,28,130622,113897
7995,516,28,130617,113905
7998,498,28,130617,113907
8000,486,28,130632,113909
8003,482,27,130616,113905
8005,482,27,130632,113906
8008,485,28,130632,113897
8010,483,28,130629,113914
8013,486,28,130635,113919
8015,487,28,130633,113915
8017,494,28,130644,113911
8020,499,28,130649,113923
8023,495,28,130650,113921
8026,489,27,130652,113920
8028,493,27,130648,113927
8031,497,28,130648,113922
8033,499,28,130646,113918
8035,502,27,130643,113918
8038,498,28,130656,113919
8040,496,27,130659,113932
8043,492,28,130662,113924
8045,491,27,130652,113922
8048,489,28,130652,113929
8050,499,27,130660,113921
8053,504,27,130652,113927
8055,509,28,130655,113912
8057,514,28,130655,113912
8060,517,28,130640,113906
8062,509,27,130633,113906
8066,503,28,130638,113910
8068,498,27,130638,113896
8071,501,27,130628,113905
8073,505,27,130624,113904
8075,503,27,130623,113904
8078,502,27,130631,113896
8080,501,27,130631,113893
8083,502,27,130607,113890
8085,501,27,130602,113890
8088,503,27,130606,113882
8090,511,28,130595,113881
8093,514,27,130587,113881
8095,522,27,130587,113874
8097,520,27,130587,113870
8100,512,27,130575,113861
8102,508,27,130566,113861
8105,510,27,130572,113862
8108,509,27,130572,113854
8111,512,27,130562,113862
8113,517,28,130558,113851
8115,523,27,130558,113857
8118,520,27,130550,113853
8120,512,27,130550,113847
8123,507,28,130542,113846
8125,504,27,130547,113846
8128,498,28,130552,113847
8130,498,27,130552,113848
8133,501,27,130549,113846
8135,499,28,130552,113846
8137,496,27,130543,113847
8140,500,27,130549,113845
8142,504,27,130549,113853
8145,510,27,130548,113851
8147,512,27,130547,113851
8151,517,28,130554,113852
8153,514,28,130554,113852
8155,514,27,130561,113853
8158,514,27,130563,113853
8160,512,27,130569,113854
8163,507,27,130571,113857
8165,505,27,130571,113864
8168,511,27,130568,113865
8170,512,27,130571,113865
8173,517,27,130579,113863
8175,515,27,130579,113866
8177,515,27,130573,113872
8180,518,27,130589,113872
8182,518,27,130592,113870
8185,508,27,130592,113865
8187,512,27,130587,113872
8190,517,27,130587,113871
8193,518,27,130585,113871
8195,515,27,130598,113865
8198,512,27,130598,113873
8200,506,27,130595,113870
8203,503,27,130588,113870
8205,505,27,130598,113870
8208,520,27,130598,113868
8210,521,27,130585,113861
8213,518,27,130572,113871
8215,519,27,130578,113871
8217,523,27,130565,113873
8220,517,27,130565,113863
8222,518,27,130575,113863
8225,522,27,130552,113866
8227,518,27,130565,113861
8230,511,27,130565,113868
8232,511,27,130561,113866
8235,525,27,130556,113869
8238,526,27,130551,113869
8240,522,27,130549,113868
8243,517,27,130549,113870
8245,517,27,130554,113868
8248,511,27,130553,113868
8250,512,27,130563,113872
8253,515,27,130566,113872
8255,517,27,130574,113876
8257,511,27,130574,113867
8260,496,27,130564,113877
8262,496,27,130576,113874
8265,498,27,130557,113874
8267,508,27,130567,113878
8270,511,27,130567,113878
8272,513,27,130584,113878
8274,510,27,130584,113887
8278,502,27,130574,113884
8280,495,27,130574,113880
8283,489,27,130601,113880
8285,494,27,130573,113889
8288,500,27,130575,113890
8290,505,27,130593,113891
8293,502,27,130593,113882
8295,497,27,130584,113885
8297,498,27,130582,113886
8300,496,27,130596,113890
8302,491,27,130603,113889
8305,499,27,130578,113887
8307,511,27,130588,113885
8310,514,27,130587,113893
8312,515,27,130594,113889
8314,510,27,130597,113890
8317,509,27,130581,113892
8320,504,27,130599,113893
8323,503,27,130607,113890
8325,506,26,130611,113888
8328,507,27,130594,113901
8330,504,26,130597,113891
8333,504,27,130598,113891
8335,504,26,130610,113905
8337,505,26,130615,113904
8340,499,26,130612,113913
8342,496,26,130603,113906
8345,498,26,130618,113907
8347,508,26,130627,113907
8350,521,26,130634,113917
8352,521,26,130624,113914
8354,522,26,130637,113914
8357,526,26,130625,113911
8359,525,26,130628,113911
8363,522,26,130630,113914
8365,519,26,130626,113913
8368,517,26,130636,113919
8370,515,26,130638,113911
8373,506,26,130635,113913
8375,501,26,130619,113916
8377,497,26,130627,113907
8380,492,26,130632,113903
8382,497,26,130615,113913
8385,508,26,130611,113899
8387,512,26,130614,113907
8390,508,26,130620,113902
8392,507,26,130618,113902
8394,514,26,130610,113894
8397,513,26,130620,113899
8399,516,26,130593,113896
8402,520,26,130601,113893
8404,518,26,130604,113892
8408,510,26,130606,113888
8410,510,26,130622,113899
8413,513,25,130601,113896
8415,516,26,130604,113899
8417,517,26,130602,113896
8420,513,26,130599,113889
8422,513,25,130611,113896
8425,509,26,130597,113890
8427,508,25,130605,113892
8430,511,25,130613,113892
8432,510,26,130607,113890
8434,516,25,130602,113887
8437,511,25,130596,113890
8439,510,25,130590,113885
8442,513,25,130596,113888
8444,514,25,130612,113890
8448,506,25,130584,113886
8450,505,25,130590,113890
8453,509,25,130596,113871
8455,509,25,130600,113888
8457,516,25,130593,113887
8460,511,25,130590,113879
8462,508,25,130606,113891
8465,512,25,130598,113867
8467,509,25,130593,113890
8470,513,25,130596,113894
8472,512,25,130600,113889
8474,508,25,130596,113884
8477,510,25,130588,113889
8479,512,25,130598,113889
8482,507,25,130596,113886
8484,510,25,130595,113889
8487,518,25,130595,113884
8489,523,25,130592,113890
8493,521,25,130596,113864
8495,516,25,130585,113885
8497,524,25,130591,113886
8500,529,25,130597,113886
8502,531,25,130589,113878
8505,527,25,130586,113875
8507,519,25,130591,113885
8510,518,25,130591,113870
8512,511,25,130578,113876
8514,512,25,130584,113876
8517,506,25,130578,113864
8519,502,25,130579,113873
8522,498,25,130581,113865
8524,497,25,130573,113864
8527,496,24,130572,113863
8529,505,25,130564,113858
8532,511,24,130564,113864
8535,512,24,130566,113854
8537,515,24,130552,113854
8540,513,24,130572,113857
8542,512,25,130567,113860
8545,515,25,130564,113864
8547,522,25,130560,113855
8550,521,24,130560,113876
8552,515,24,130565,113860
8554,516,24,130568,113860
8557,513,24,130572,113861
8559,512,24,130572,113876
8562,508,24,130561,113859
8564,512,24,130576,113865
8567,515,24,130569,113864
8569,513,24,130571,113868
8572,509,24,130571,113865
8574,507,24,130559,113861
8577,513,24,130559,113865
8580,520,24,130574,113871
8582,520,24,130570,113871
8585,509,24,130582,113870
8587,510,24,130582,113868
8590,515,24,130565,113868
8592,514,24,130583,113874
8594,509,24,130578,113874
8597,509,24,130583,113866
8599,505,24,130583,113866
8602,508,24,130581,113873
8604,510,24,130582,113873
8607,515,24,130585,113868
8609,515,24,130585,113869
8612,518,24,130583,113866
8614,520,24,130575,113870
8616,521,24,130568,113870
8620,518,24,130576,113863
8622,512,24,130576,113866
8625,514,24,130573,113863
8627,514,24,130568,113863
8630,518,24,130576,113863
8632,512,24,130576,113862
8634,505,24,130563,113863
8637,504,24,130571,113863
8639,509,24,130578,113863
8642,511,24,130571,113867
8644,513,24,130571,113864
8647,520,24,130576,113866
8649,520,24,130569,113866
8652,525,24,130580,113870
8654,520,24,130580,113865
8656,522,24,130575,113866
8659,523,24,130578,113866
8662,522,24,130592,113864
8665,509,24,130592,113865
8667,510,23,130582,113865
8670,514,24,130581,113870
8672,513,24,130584,113870
8674,507,23,130583,113873
8677,502,24,130583,113867
8679,494,23,130585,113874
8682,489,23,130596,113874
8684,490,24,130599,113875
8687,503,23,130599,113877
8689,500,23,130602,113877
8692,499,23,130598,113884
8694,503,23,130595,113884
8696,511,23,130603,113879
8699,507,23,130603,113879
8701,507,23,130604,113882
8705,514,23,130600,113887
8707,514,23,130610,113885
8710,509,23,130587,113885
8712,510,23,130593,113880
8714,509,23,130597,113885
8717,505,23,130597,113885
8719,507,23,130617,113885
8722,509,23,130605,113890
8724,504,23,130601,113885
8727,502,23,130601,113885
8729,502,23,130604,113888
8732,518,23,130605,113888
8734,521,23,130613,113889
8736,517,23,130600,113887
8739,516,23,130600,113883
8741,507,23,130609,113883
8744,505,23,130625,113886
8747,501,23,130608,113885
8750,503,23,130608,113889
8752,507,23,130614,113889
8754,510,23,130602,113886
8757,513,23,130606,113883
8759,508,23,130606,113883
8762,505,23,130603,113886
8764,498,23,130626,113875
8767,500,23,130598,113879
8769,509,23,130605,113885
8772,519,23,130611,113885
8774,527,22,130605,113891
8776,530,23,130618,113884
8779,537,23,130605,113883
8781,544,22,130615,113882
8784,543,23,130623,113882
8786,553,23,130601,113881
8790,561,23,130602,113881
8792,561,22,130608,113893
8794,556,22,130622,113886
8797,546,22,130620,113889
8799,534,22,130608,113888
8802,511,22,130622,113892
8804,486,22,130631,113889
8807,478,22,130628,113900
8809,483,22,130618,113894
8812,488,22,130629,113890
8814,494,22,130622,113895
8816,497,22,130629,113887
8819,494,22,130631,113898
8821,491,22,130625,113891
8824,489,22,130630,113897
8826,497,22,130622,113896
8829,505,22,130613,113888
8832,510,22,130625,113893
8834,513,22,130619,113896
8837,508,22,130626,113884
8839,501,22,130620,113872
8842,499,22,130613,113881
8844,497,22,130608,113881
8847,492,22,130622,113882
8849,496,22,130607,113883
8852,502,22,130607,113885
8854,499,22,130608,113882
8856,502,22,130599,113878
8859,507,22,130604,113876
8861,508,22,130599,113878
8864,498,22,130597,113870
8866,500,22,130578,113865
8869,504,21,130586,113871
8871,507,22,130579,113859
8873,504,21,130586,113866
8877,504,21,130590,113866
8879,506,21,130574,113866
8882,505,22,130580,113860
8884,499,21,130578,113859
8887,498,21,130589,113858
8889,506,21,130575,113866
8892,510,21,130575,113856
8894,510,21,130574,113859
8896,514,21,130575,113854
8899,512,21,130561,113856
8901,506,21,130568,113853
8904,509,21,130568,113844
8906,506,21,130560,113854
8909,510,21,130569,113854
8911,508,21,130559,113852
8913,507,21,130558,113855
8916,513,21,130558,113853
8919,516,21,130559,113849
8922,519,21,130558,113852
8924,516,21,130564,113853
8927,504,21,130551,113841
8929,500,21,130549,113841
8932,506,21,130558,113858
8934,505,21,130554,113846
8936,510,21,130559,113849
8939,516,21,130555,113853
8941,518,21,130551,113847
8944,513,21,130549,113846
8946,501,21,130546,113841
8949,504,21,130555,113843
8951,508,21,130543,113837
8953,512,21,130540,113845
8956,512,21,130556,113845
8958,518,21,130548,113842
8962,523,21,130544,113842
8964,520,21,130550,113849
8967,509,21,130549,113847
8969,511,21,130543,113844
8972,514,21,130557,113847
8974,515,21,130554,113834
8976,510,21,130546,113846
8979,512,21,130554,113840
8981,520,21,130555,113842
8984,522,21,130555,113850
8986,520,21,130557,113852
8989,518,21,130557,113847
8991,514,21,130558,113846
8993,507,21,130555,113840
8996,506,21,130553,113847
8998,507,21,130565,113842
9001,506,21,130566,113857
9004,498,21,130556,113844
9007,497,21,130554,113844
9009,505,21,130554,113846
9012,509,21,130554,113851
9014,510,21,130547,113844
9016,515,21,130555,113839
9019,514,21,130537,113840
9021,517,21,130542,113839
9024,522,21,130547,113838
9026,523,21,130531,113837
9029,517,21,130538,113837
9031,514,21,130537,113836
9033,514,21,130537,113832
9036,513,21,130522,113828
9038,513,21,130521,113830
9041,509,21,130529,113835
9043,503,21,130515,113822
9047,508,21,130515,113833
9049,509,21,130507,113833
9052,514,21,130514,113815
9054,516,21,130503,113828
9056,520,21,130503,113825
9059,523,21,130497,113813
9061,515,21,130496,113813
9064,504,21,130510,113821
9066,500,21,130510,113817
9069,507,21,130507,113827
9071,510,21,130512,113821
9073,509,21,130501,113821
9076,505,21,130497,113821
9078,506,21,130497,113826
9081,506,21,130503,113820
9083,502,20,130499,113820
9086,494,21,130504,113825
9089,498,20,130504,113826
9092,504,21,130499,113827
9094,503,20,130509,113825
9096,499,21,130502,113825
9099,494,20,130508,113822
9101,496,21,130508,113823
9104,502,20,130501,113835
9106,504,21,130507,113835
9109,509,20,130511,113825
9111,509,21,130511,113830
9113,501,20,130509,113830
9116,497,20,130512,113831
9118,500,21,130521,113831
9121,504,21,130510,113823
9123,497,21,130510,113833
9126,501,20,130517,113830
9128,504,21,130516,113830
9132,511,21,130524,113833
9134,507,20,130524,113834
9136,508,21,130519,113843
9139,510,20,130521,113843
9141,508,21,130542,113835
9144,497,21,130542,113833
9146,499,21,130529,113839
9149,506,20,130525,113831
9151,506,20,130527,113831
9153,502,20,130531,113843
9156,500,21,130531,113829
9158,495,20,130530,113832
9161,490,20,130523,113832
9163,490,20,130529,113833
9166,502,20,130529,113834
9168,498,20,130532,113832
9171,496,20,130527,113836
9174,500,20,130524,113836
9176,507,20,130494,113833
9179,504,20,130494,113831
9181,505,20,130526,113829
9184,506,20,130518,113823
9186,510,20,130528,113823
9189,509,20,130508,113823
9191,506,20,130519,113818
9193,511,20,130519,113819
9196,511,20,130506,113823
9198,513,20,130505,113819
9201,513,21,130486,113819
9203,509,21,130486,113812
9206,511,20,130501,113812
9208,515,21,130501,113817
9211,510,20,130505,113817
9213,508,20,130512,113814
9216,502,21,130512,113818
9219,496,20,130506,113824
9221,496,21,130518,113812
9224,504,21,130505,113812
9226,512,21,130507,113811
9229,514,21,130519,113811
9231,514,21,130525,113817
9233,508,21,130525,113808
9236,498,21,130512,113821
9238,503,21,130521,113821
9241,504,21,130526,113822
9243,497,20,130526,113817
9246,490,21,130511,113819
9248,491,20,130518,113817
9251,499,21,130526,113817
9253,503,21,130514,113818
9255,503,21,130532,113817
9259,506,21,130518,113815
9261,507,21,130527,113821
9264,501,20,130538,113821
9266,499,21,130514,113829
9269,507,20,130511,113822
9271,513,20,130519,113822
9273,512,20,130527,113821
9276,514,20,130524,113815
9278,515,21,130509,113822
9281,509,21,130523,113822
9283,494,20,130526,113826
9286,496,21,130527,113827
9288,501,20,130529,113823
9291,503,20,130530,113825
9293,500,20,130537,113823
9295,499,20,130530,113825
9298,492,20,130523,113826
9300,489,20,130532,113818
9304,489,20,130529,113825
9306,491,20,130525,113820
9309,493,20,130525,113821
9311,498,20,130525,113821
9313,502,20,130524,113819
9316,507,20,130526,113820
9318,513,20,130528,113822
9321,514,20,130534,113818
9323,509,20,130526,113818
9326,508,20,130530,113825
9328,517,20,130528,113828
9331,521,20,130516,113824
9333,520,20,130529,113817
9335,521,20,130532,113822
9338,517,20,130543,113828
9340,511,20,130535,113824
9344,509,20,130531,113830
9346,513,20,130524,113834
9349,522,20,130531,113832
9351,516,20,130537,113825
9353,517,20,130525,113824
9356,522,20,130528,113825
9358,522,20,130538,113830
9361,507,20,130537,113829
9363,504,20,130522,113824
9366,505,20,130529,113826
9368,502,20,130525,113820
9371,502,20,130533,113824
9373,507,20,130539,113823
9375,505,20,130517,113827
9378,501,20,130530,113820
9380,496,20,130525,113821
9383,502,20,130532,113821
9385,504,20,130520,113824
9389,509,20,130524,113818
9391,512,20,130519,113818
9393,508,20,130516,113821
9396,510,20,130526,113816
9398,514,20,130511,113817
9401,514,20,130509,113814
9403,506,20,130523,113823
9406,503,20,130519,113813
9408,510,20,130511,113817
9411,514,20,130514,113805
9413,513,20,130509,113816
9415,517,20,130514,113816
9418,505,20,130519,113797
9420,498,20,130512,113799
9423,496,20,130523,113825
9425,496,20,130517,113830
9428,504,20,130516,113820
9431,522,20,130522,113826
9433,529,20,130522,113793
9436,526,20,130516,113822
9438,517,20,130524,113824
9441,510,20,130518,113823
9443,512,20,130524,113826
9446,518,20,130524,113808
9448,516,20,130527,113829
9451,520,20,130516,113818
9453,515,20,130516,113819
9455,520,20,130516,113820
9458,526,20,130528,113829
9460,530,21,130520,113825
9463,522,20,130523,113836
9465,513,21,130530,113827
9468,514,21,130530,113812
9470,509,20,130522,113819
9473,509,21,130519,113818
9476,504,21,130517,113826
9478,509,21,130528,113818
9481,508,21,130518,113818
9483,501,21,130511,113817
9486,493,21,130527,113822
9488,493,21,130515,113823
9491,497,21,130515,113828
9493,497,21,130511,113813
9495,500,21,130519,113813
9498,498,21,130524,113815
9500,497,21,130521,113814
9503,499,21,130517,113811
9505,506,21,130511,113814
9508,505,21,130515,113826
9510,500,21,130512,113813
9512,501,21,130515,113813
9516,497,21,130515,113816
9518,497,21,130515,113831
9521,495,21,130514,113810
9523,498,21,130514,113816
9526,501,21,130527,113813
9528,503,21,130519,113815
9531,503,21,130519,113821
9533,499,21,130521,113811
9535,499,21,130528,113811
9538,492,21,130535,113821
9540,490,21,130535,113823
9543,489,21,130530,113821
9545,494,21,130528,113820
9548,501,21,130527,113820
9550,512,21,130531,113822
9552,512,21,130531,113825
9555,507,21,130531,113824
9558,504,21,130531,113823
9561,504,21,130521,113818
9563,500,21,130530,113818
9566,496,21,130524,113822
9568,505,21,130524,113825
9571,510,21,130528,113815
9573,512,21,130517,113820
9575,514,21,130527,113820
9578,529,21,130524,113817
9580,553,21,130524,113814
9583,564,21,130520,113819
9585,566,21,130521,113819
9588,570,21,130513,113821
9590,558,21,130513,113818
9592,544,21,130523,113816
9595,536,21,130526,113823
9597,526,21,130533,113823
9601,505,21,130529,113816
9603,482,21,130529,113822
9606,480,21,130525,113818
9608,479,21,130534,113818
9611,482,21,130538,113825
9613,477,21,130538,113820
9615,479,21,130533,113836
9618,481,21,130530,113836
9620,485,21,130534,113827
9623,483,22,130534,113824
9625,487,21,130539,113837
9628,493,21,130541,113832
9630,493,21,130546,113832
9632,489,21,130539,113838
9635,489,22,130539,113839
9637,487,21,130547,113832
9640,484,21,130549,113832
9643,484,22,130571,113838
9646,494,22,130571,113837
9648,491,21,130556,113843
9651,488,21,130555,113841
9653,489,21,130558,113841
9655,494,21,130530,113838
9658,496,21,130530,113838
9660,503,22,130564,113842
9663,508,21,130555,113842
9665,508,22,130565,113845
9668,500,22,130565,113843
9670,504,22,130554,113842
9672,510,21,130558,113841
9675,510,22,130537,113841
9677,506,22,130559,113846
9680,508,22,130559,113837
9682,508,21,130550,113839
9686,505,22,130551,113835
9688,505,22,130547,113827
9691,502,22,130533,113827
9693,504,22,130537,113830
9695,507,22,130537,113823
9698,504,22,130548,113823
9700,504,22,130534,113818
9703,504,22,130532,113822
9705,508,22,130525,113822
9708,510,22,130525,113816
9710,510,22,130526,113815
9712,512,22,130518,113815
9715,511,22,130517,113818
9717,505,22,130531,113815
9720,503,22,130515,113816
9722,500,22,130521,113816
9725,499,22,130505,113809
9728,497,22,130505,113812
9731,492,22,130503,113811
9733,493,22,130512,113810
9735,493,22,130543,113810
9738,494,22,130528,113808
9740,492,22,130528,113815
9743,487,22,130517,113810
9745,493,22,130523,113816
9748,494,22,130546,113822
9750,500,22,130521,113830
9752,509,22,130537,113826
9755,519,22,130543,113831
9757,521,22,130540,113824
9760,510,22,130554,113827
9762,501,22,130547,113829
9765,501,22,130545,113831
9767,500,22,130544,113832
9771,502,22,130551,113841
9773,503,22,130560,113835
9775,505,22,130562,113842
9778,505,22,130554,113840
9780,501,22,130563,113838
9783,503,22,130572,113843
9785,504,22,130577,113842
9788,507,22,130558,113843
9790,518,22,130571,113842
9792,521,22,130563,113845
9795,523,22,130577,113849
9797,520,22,130573,113841
9800,518,22,130555,113844
9802,519,22,130561,113843
9805,517,22,130560,113838
9807,513,22,130571,113840
9810,515,22,130559,113837
9812,515,21,130545,113834
9815,517,21,130560,113836
9818,522,21,130549,113835
9820,524,22,130553,113834
9823,514,21,130554,113838
9825,517,21,130536,113830
9828,523,21,130544,113836
9830,524,21,130542,113827
9832,524,22,130542,113817
9835,534,21,130526,113830
9837,538,21,130530,113827
9840,542,21,130524,113817
9842,538,21,130537,113819
9845,538,21,130522,113818
9847,533,22,130512,113820
9850,534,22,130524,113825
9852,532,21,130523,113814
9854,534,21,130516,113816
9858,527,21,130508,113821
9860,519,22,130509,113814
9863,520,21,130505,113822
9865,520,22,130505,113817
9868,523,22,130505,113819
9870,516,22,130494,113818
9872,510,21,130488,113818
9875,503,22,130496,113813
9877,506,22,130514,113814
9880,513,22,130508,113817
9882,513,22,130505,113818
9885,501,22,130496,113817
9887,499,22,130502,113814
9890,500,22,130498,113805
9892,495,22,130501,113814
9894,501,22,130511,113818
9897,506,22,130511,113818
9900,512,22,130518,113817
9903,508,22,130505,113817
9905,505,22,130497,113818
9908,506,22,130502,113805
9910,502,22,130509,113819
9912,506,22,130504,113817
9915,498,22,130506,113820
9917,501,22,130507,113811
9920,507,22,130496,113822
9922,507,22,130507,113822
9925,500,22,130509,113822
9927,503,22,130507,113827
9930,505,22,130504,113789
9932,504,22,130506,113820
9934,510,22,130516,113824
9937,514,22,130526,113824
9939,510,22,130507,113821
9943,502,22,130515,113819
9945,501,22,130512,113817
9948,501,22,130510,113813
9950,501,22,130513,113810
9952,495,22,130505,113807
9955,494,22,130497,113811
9957,496,22,130508,113808
9960,498,22,130500,113798
9962,494,22,130499,113800
9965,496,22,130484,113800
9967,495,22,130497,113800
9970,497,22,130497,113801
9972,498,22,130480,113798
9974,505,22,130488,113793
9977,504,22,130479,113793
9979,508,22,130482,113790
9982,510,22,130480,113785
9985,505,22,130475,113792
9988,503,22,130478,113792
9990,503,22,130481,113792
9992,507,22,130481,113778
9995,516,22,130470,113781
9997,512,22,130472,113781
10000,505,22,130475,113801
10002,504,23,130475,113783
10005,509,22,130486,113788
10007,514,22,130475,113788
10010,513,22,130484,113788
10012,505,23,130483,113793
10014,506,23,130492,113790
10017,509,23,130486,113794
10019,507,23,130486,113791
10022,506,22,130491,113802
10024,500,23,130503,113802
10028,493,23,130508,113803
10030,496,23,130509,113816
10032,499,22,130513,113816
10035,505,23,130517,113815
10037,511,23,130517,113812
10040,519,23,130525,113817
10042,517,23,130527,113817
10045,508,23,130532,113821
10047,507,23,130532,113827
10050,510,23,130533,113824
10052,511,23,130531,113824
10054,511,23,130531,113824
10057,507,23,130530,113824
10059,503,23,130530,113822
10062,505,23,130532,113826
10064,504,23,130539,113826
10067,507,23,130543,113826
10070,503,23,130543,113824
10072,504,23,130542,113833
10075,505,23,130542,113827
10077,505,23,130537,113827
10080,501,23,130542,113820
10082,499,23,130542,113826
10085,502,23,130531,113818
10087,502,23,130533,113818
10090,505,23,130535,113823
10092,501,23,130528,113820
10094,500,23,130532,113820
10097,503,23,130529,113820
10099,500,23,130520,113820
10102,496,23,130535,113824
10104,499,23,130535,113825
10107,505,23,130532,113819
10109,505,23,130539,113819
10112,501,23,130536,113823
10115,499,23,130536,113818
10117,495,23,130539,113828
10120,491,23,130506,113828
10122,494,23,130506,113824
10125,502,23,130533,113824
10127,512,23,130533,113828
10130,518,23,130538,113828
10132,523,23,130544,113828
10134,524,23,130545,113830
10137,507,23,130545,113827
10139,504,23,130542,113830
10142,504,23,130536,113830
10144,499,23,130536,113824
10147,501,23,130545,113827
10149,503,23,130535,113827
10151,506,23,130538,113829
10155,502,23,130538,113831
10157,504,23,130545,113838
10160,508,23,130549,113838
10162,508,23,130546,113833
10165,504,23,130546,113832
10167,504,23,130552,113831
10170,518,23,130546,113831
10172,519,24,130542,113831
10174,515,23,130542,113832
10177,515,24,130547,113831
10179,516,23,130546,113836
10182,512,24,130544,113836
10184,503,24,130545,113836
10187,502,24,130545,113830
10189,501,23,130545,113830
10191,505,23,130547,113829
10194,505,24,130552,113830
10196,514,24,130541,113830
10200,513,24,130540,113837
10202,507,23,130557,113835
10205,505,24,130544,113840
10207,505,23,130561,113840
10210,506,24,130546,113848
10212,506,24,130558,113847
10214,510,23,130561,113847
10217,510,24,130565,113845
10219,504,24,130583,113848
10222,502,23,130576,113859
10224,499,24,130599,113859
10227,497,23,130575,113856
10229,502,23,130586,113854
10231,501,23,130594,113867
10234,497,24,130578,113866
10236,493,24,130610,113866
10240,496,24,130604,113870
10242,500,23,130607,113877
10245,497,23,130627,113886
10247,498,23,130623,113894
10250,496,23,130626,113887
10252,503,24,130637,113892
10254,502,23,130642,113897
10257,498,23,130651,113901
10259,496,23,130654,113901
10262,501,23,130667,113901
10264,510,23,130653,113906
10267,512,24,130649,113907
10269,516,23,130649,113903
10271,522,23,130648,113907
10274,512,23,130661,113901
10276,511,24,130644,113904
10279,512,24,130658,113906
10281,512,24,130646,113898
10285,505,23,130650,113895
10287,497,23,130623,113898
10290,496,24,130635,113886
10292,495,23,130630,113887
10294,495,24,130630,113883
10297,505,24,130630,113882
10299,508,24,130618,113885
10302,507,24,130616,113884
10304,504,24,130615,113877
10307,506,24,130618,113872
10309,502,24,130605,113880
10311,504,24,130602,113869
10314,510,24,130602,113861
10316,514,24,130600,113863
10319,506,24,130600,113858
10321,511,24,130597,113864
10324,518,24,130587,113863
10327,523,24,130593,113859
10330,523,24,130596,113855
10332,527,24,130598,113860
10334,532,24,130575,113861
10337,536,24,130594,113862
10339,541,24,130590,113852
10342,560,24,130590,113860
10344,563,24,130574,113859
10347,565,24,130582,113847
10349,564,24,130572,113852
10351,554,24,130581,113854
10354,535,24,130590,113845
10356,519,24,130579,113850
10359,505,24,130589,113855
10361,497,24,130591,113849
10364,483,24,130575,113844
10366,476,24,130586,113857
10370,479,24,130580,113852
10372,477,24,130582,113864
10374,482,24,130592,113866
10377,491,24,130589,113863
10379,497,24,130591,113862
10382,491,24,130589,113856
10384,492,24,130591,113861
10387,496,24,130590,113859
10389,501,24,130583,113864
10391,504,24,130591,113845
10394,500,24,130586,113862
10396,497,24,130592,113860
10399,491,24,130586,113859
10401,493,24,130591,113857
10404,500,24,130583,113840
10406,499,24,130587,113859
10409,502,24,130586,113861
10412,500,25,130584,113853
10414,507,24,130579,113851
10417,515,25,130570,113852
10419,518,25,130575,113846
10422,509,25,130567,113844
10424,500,24,130570,113847
10427,501,25,130570,113823
10429,497,25,130555,113837
10431,500,25,130555,113837
10434,496,25,130565,113847
10436,498,25,130568,113844
10439,499,24,130556,113836
10441,500,25,130558,113832
10444,496,25,130548,113835
10446,502,25,130555,113834
10449,505,25,130555,113832
10451,511,25,130544,113833
10454,511,25,130547,113835
10457,505,25,130545,113830
10459,502,25,130538,113827
10462,499,25,130550,113829
10464,495,25,130546,113822
10467,495,25,130546,113822
10469,497,25,130547,113824
10471,503,25,130547,113827
10474,510,25,130540,113825
10476,507,25,130540,113825
10479,501,25,130542,113833
10481,504,25,130534,113829
10484,509,25,130534,113817
10486,514,25,130526,113817
10489,513,25,130543,113817
10491,511,25,130539,113821
10493,513,25,130539,113821
10497,519,25,130537,113815
10499,515,25,130532,113815
10502,503,25,130544,113826
10504,506,25,130544,113819
10507,512,25,130545,113821
10509,516,25,130539,113823
10511,513,25,130541,113823
10514,513,25,130552,113835
10516,511,25,130552,113830
10519,516,25,130551,113831
10521,520,25,130561,113831
10524,517,25,130569,113835
10526,506,25,130569,113841
10529,508,25,130570,113842
10531,513,25,130571,113851
10533,515,25,130585,113851
10536,514,25,130586,113853
10539,511,25,130586,113863
10542,513,25,130587,113854
10544,512,25,130594,113854
10547,515,25,130605,113862
10549,508,25,130605,113869
10551,509,25,130606,113872
10554,512,25,130603,113870
10556,509,25,130612,113870
10559,502,25,130617,113873
10561,503,26,130617,113868
10564,512,25,130601,113868
10566,513,25,130606,113868
10569,517,25,130608,113865
10571,512,25,130599,113863
10573,512,26,130596,113863
10576,521,25,130596,113865
10578,521,26,130600,113865
10582,512,26,130593,113852
10584,512,26,130593,113855
10587,513,26,130585,113852
10589,512,25,130582,113852
10591,506,26,130589,113862
10594,503,25,130589,113848
10596,499,25,130572,113851
10599,496,25,130545,113851
10601,498,25,130545,113850
10604,508,26,130565,113850
10606,514,26,130565,113847
10609,510,25,130571,113846
10611,505,26,130523,113846
10613,499,25,130562,113854
10616,504,25,130562,113846
10618,499,25,130560,113845
10621,494,25,130555,113845
10624,496,25,130563,113852
10627,504,25,130564,113855
10629,504,25,130564,113841
10631,504,26,130559,113841
10634,510,26,130559,113853
10636,508,26,130567,113855
10639,503,25,130560,113855
10641,505,25,130558,113845
10644,504,25,130556,113845
10646,500,25,130561,113845
10649,501,25,130561,113847
10651,509,25,130558,113851
10653,512,25,130558,113846
10656,509,26,130558,113846
10658,511,25,130563,113853
10661,509,25,130563,113855
10663,505,25,130565,113855
10667,510,25,130566,113855
10669,510,25,130575,113861
10671,516,25,130564,113861
10674,517,25,130573,113859
10676,512,25,130572,113859
10679,510,25,130572,113860
10681,504,25,130572,113860
10684,505,25,130584,113860
10686,502,25,130584,113860
10689,504,25,130575,113865
10691,507,25,130584,113865
10693,510,25,130573,113865
10696,509,25,130572,113852
10698,503,25,130604,113860
10701,502,25,130579,113865
10703,501,25,130612,113865
10706,501,25,130580,113866
10708,508,25,130594,113866
10711,509,25,130595,113870
10714,505,25,130579,113870
10716,502,25,130599,113860
10719,505,25,130587,113870
10721,510,25,130594,113859
10724,513,25,130598,113860
10726,514,25,130574,113857
10729,509,25,130593,113862
10731,510,25,130571,113861
10733,509,25,130577,113856
10736,508,25,130578,113858
10738,508,25,130583,113861
10741,503,25,130584,113858
10743,500,25,130582,113852
10746,500,25,130573,113851
10748,501,25,130578,113851
10750,508,25,130575,113849
10754,519,25,130579,113847
10756,524,25,130568,113855
10759,524,25,130578,113845
10761,524,25,130578,113850
10764,524,25,130557,113849
10766,522,25,130571,113843
10769,522,25,130566,113841
10771,519,25,130565,113845
10773,512,25,130570,113852
10776,506,25,130557,113851
10778,501,25,130558,113841
10781,506,25,130564,113845
10783,514,25,130569,113846
10786,515,25,130560,113847
10788,512,25,130562,113845
10790,514,25,130556,113846
10793,510,25,130567,113837
10796,513,25,130571,113849
10799,517,25,130576,113848
10801,518,25,130572,113851
10804,512,25,130578,113856
10806,510,25,130587,113862
10809,512,25,130594,113867
10811,515,25,130594,113863
10813,519,25,130616,113870
10816,514,25,130605,113877
10818,508,25,130610,113879
10821,509,25,130615,113872
10823,505,25,130623,113877
10826,508,25,130621,113881
10828,507,25,130621,113888
10830,505,25,130633,113897
