TimeStamp,ECG Data,GSR Data,PPG_Red Data,PPG_IR Data
55085,506,322,130344,121440
55087,506,322,130362,121449
55090,505,322,130375,121453
55092,506,322,130393,121466
55085,506,322,130344,121440
55087,506,322,130362,121449
55090,505,322,130375,121453
55092,506,322,130393,121466
55085,506,322,130344,121440
55087,506,322,130362,121449
55090,505,322,130375,121453
55092,506,322,130393,121466
6,503,328,0,0
8,504,327,57581,57483
11,505,327,73957,73933
13,505,327,90340,90325
15,506,328,106713,106731
18,506,328,123119,121793
20,506,328,131402,121782
23,506,328,131208,121797
25,506,328,131235,121809
28,506,328,131255,121809
30,508,328,131268,121819
33,509,328,131299,121834
35,510,328,131323,121841
37,510,328,131345,121846
40,510,328,131365,121855
43,513,328,131378,121867
46,516,328,131401,121872
48,523,328,131435,121881
51,532,328,131460,121895
53,554,328,131498,121909
55,563,328,131518,121911
58,572,328,131541,121933
60,574,328,131580,121943
63,565,329,131602,121951
65,543,328,131627,121964
68,518,329,131657,121973
70,484,328,131687,121982
73,473,328,131718,122004
75,464,328,131751,122005
77,457,329,131784,122018
80,452,329,131824,122037
82,452,329,131851,122051
86,454,329,131874,122065
88,457,329,131900,122072
91,461,329,131942,122083
93,468,329,131958,122096
95,471,329,131985,122114
98,476,329,132027,122116
100,480,329,132058,122142
103,486,329,132094,122146
105,493,329,132125,122165
108,497,329,132139,122171
110,502,329,132179,122184
113,505,329,132212,122192
115,512,329,132232,122207
117,514,329,132259,122217
120,516,329,132303,122233
122,517,329,132320,122235
125,519,329,132333,122252
128,520,329,132376,122260
131,520,329,132394,122275
133,521,329,132426,122283
135,521,329,132463,122297
138,521,329,132480,122300
140,521,329,132510,122326
143,521,329,132534,122334
145,521,329,132560,122341
148,522,329,132589,122351
150,522,329,132610,122363
153,522,329,132635,122372
155,522,329,132660,122377
157,522,329,132682,122391
160,522,329,132707,122395
162,522,329,132733,122410
165,522,329,132748,122416
167,522,329,132769,122427
171,522,329,132792,122434
173,522,329,132809,122443
175,522,329,132833,122453
178,522,329,132853,122462
180,522,329,132878,122464
183,522,330,132887,122475
185,522,329,132910,122479
188,522,329,132924,122486
190,521,329,132943,122489
193,521,329,132955,122497
195,521,329,132978,122501
197,521,330,132998,122506
200,520,329,133018,122519
202,521,330,133022,122520
205,520,329,133032,122529
207,521,330,133056,122534
210,520,330,133056,122534
212,521,330,133076,122550
215,521,330,133102,122550
218,521,329,133107,122564
220,521,330,133127,122561
223,521,329,133131,122569
225,521,330,133147,122576
228,521,330,133157,122579
230,521,329,133180,122584
233,521,330,133180,122594
235,521,330,133198,122595
237,521,330,133218,122595
240,522,330,133235,122608
242,522,330,133244,122607
245,522,330,133244,122611
247,522,330,133256,122613
250,523,330,133269,122613
252,523,330,133286,122623
254,523,330,133286,122631
258,523,330,133302,122634
260,523,330,133314,122634
263,524,330,133332,122649
265,524,330,133336,122653
268,524,330,133336,122656
270,524,330,133355,122657
273,524,330,133368,122657
275,525,330,133372,122660
277,525,330,133372,122663
280,526,330,133364,122656
282,526,330,133364,122656
285,526,330,133369,122661
287,526,330,133349,122643
290,526,330,133333,122650
292,526,330,133333,122634
294,527,330,133301,122616
297,527,330,133225,122597
300,527,330,133173,122597
303,526,330,133104,122532
305,526,330,133104,122504
308,526,330,133035,122458
310,526,330,132830,122458
313,525,330,132720,122410
315,524,330,132720,122306
317,523,330,132601,122255
320,522,330,132344,122198
322,521,330,132344,122140
325,519,330,132065,122083
327,518,330,131920,122083
330,516,330,131794,122019
332,513,330,131794,121894
334,510,330,131628,121839
337,508,330,131351,121783
339,507,330,131211,121783
343,504,330,131211,121669
345,503,330,130945,121669
348,502,330,130833,121627
350,499,330,130833,121517
353,498,330,130715,121474
355,497,330,130495,121474
357,496,330,130408,121435
360,494,330,130408,121357
362,493,330,130319,121325
365,492,330,130166,121325
367,492,330,130112,121302
370,491,330,130112,121255
372,491,330,130012,121255
374,491,330,129975,121233
377,491,330,129975,121206
379,491,330,129932,121194
382,491,330,129874,121194
385,491,330,129859,121183
388,491,330,129859,121164
390,491,330,129828,121161
393,491,330,129795,121161
395,491,330,129795,121155
397,492,330,129796,121149
400,492,330,129785,121158
402,492,330,129785,121160
405,493,330,129783,121161
407,493,330,129781,121163
410,494,330,129789,121163
412,494,330,129815,121170
414,494,330,129815,121179
417,495,330,129837,121179
419,496,330,129848,121193
422,496,330,129848,121210
424,497,330,129875,121224
428,497,330,129900,121224
430,497,330,129954,121233
433,498,330,129954,121257
435,498,330,129996,121257
437,498,330,129996,121282
440,498,330,130031,121290
442,499,330,130057,121306
445,499,330,130084,121318
447,499,330,130127,121335
450,500,331,130164,121335
452,500,330,130203,121351
454,500,330,130245,121369
457,500,330,130289,121395
459,501,331,130324,121408
462,500,330,130411,121421
464,501,330,130411,121462
467,501,330,130451,121462
470,502,330,130497,121474
473,502,331,130547,121504
475,502,330,130589,121521
477,502,331,130644,121544
480,503,330,130688,121561
482,503,330,130739,121581
485,503,331,130787,121607
487,503,330,130831,121622
490,503,330,130884,121652
492,503,331,130929,121664
494,503,330,130977,121689
497,503,331,131028,121708
499,503,331,131079,121727
502,503,330,131121,121750
504,504,330,131179,121763
507,504,331,131224,121787
509,505,331,131281,121810
513,505,331,131325,121826
515,505,331,131376,121846
517,505,331,131425,121868
520,505,331,131465,121893
522,505,331,131522,121914
525,505,331,131569,121944
527,505,331,131630,121957
530,505,331,131691,121973
532,505,331,131744,121993
534,506,331,131791,122023
537,506,331,131845,122035
539,506,331,131890,122063
542,506,331,131942,122083
544,506,331,131986,122103
547,506,331,132037,122127
549,506,331,132080,122148
552,506,331,132136,122174
555,506,331,132190,122191
557,506,331,132250,122212
560,506,331,132296,122228
562,506,331,132337,122245
565,506,331,132383,122263
567,506,331,132428,122281
570,506,331,132460,122293
572,506,331,132490,122307
574,506,331,132525,122317
577,507,331,132550,122326
579,507,331,132577,122340
582,507,331,132609,122348
584,507,331,132634,122354
587,507,331,132640,122361
589,507,331,132668,122368
592,507,331,132668,122376
594,507,331,132676,122375
596,507,331,132679,122381
600,507,331,132675,122388
602,507,331,132671,122384
605,507,331,132674,122372
607,507,331,132668,122380
610,507,331,132658,122372
612,507,331,132637,122364
614,507,331,132615,122354
617,508,331,132587,122352
619,508,331,132565,122334
622,508,331,132530,122316
624,508,331,132495,122309
627,509,331,132466,122294
629,510,331,132418,122281
632,511,331,132405,122256
634,511,331,132343,122238
636,511,331,132300,122223
640,511,331,132261,122205
642,512,331,132211,122185
645,512,331,132156,122161
647,512,331,132116,122144
650,513,331,132069,122122
652,513,331,132034,122106
654,514,331,131973,122090
657,515,331,131930,122076
659,515,331,131882,122041
662,515,331,131843,122030
664,515,331,131797,122012
667,515,331,131757,121985
669,516,331,131726,121974
672,516,331,131678,121962
674,516,331,131648,121943
676,516,331,131611,121931
679,515,331,131576,121921
681,514,331,131548,121911
685,513,331,131548,121907
687,512,331,131503,121897
690,512,331,131485,121897
692,509,331,131472,121885
694,509,331,131449,121879
697,507,331,131429,121867
699,506,331,131429,121865
702,505,331,131416,121865
704,505,331,131409,121864
707,505,331,131409,121859
709,505,331,131397,121858
712,505,331,131404,121858
714,505,331,131420,121869
716,505,331,131406,121867
719,505,331,131418,121870
721,505,331,131418,121874
724,505,332,131425,121876
727,505,331,131449,121876
730,505,332,131463,121903
732,505,331,131477,121907
734,505,331,131477,121912
737,505,331,131505,121924
739,505,332,131534,121924
742,506,331,131543,121939
744,505,331,131543,121946
747,506,332,131569,121960
749,506,331,131612,121960
752,507,332,131647,121974
754,507,332,131666,121991
756,507,332,131666,121998
759,507,332,131714,122010
761,507,332,131748,122010
764,507,332,131771,122036
766,508,331,131771,122043
770,509,332,131804,122054
772,510,332,131848,122054
774,511,332,131890,122060
777,516,332,131920,122088
779,520,332,131920,122098
782,528,332,131965,122117
784,536,332,132004,122117
787,547,332,132035,122125
789,566,332,132035,122153
792,574,332,132063,122159
794,576,332,132128,122159
796,571,332,132165,122178
799,544,332,132190,122189
801,529,332,132210,122189
804,490,332,132231,122220
806,475,332,132231,122243
809,462,332,132285,122254
812,450,332,132334,122270
814,444,332,132334,122275
817,442,332,132409,122275
819,443,332,132442,122284
822,449,332,132442,122310
824,456,332,132467,122327
827,462,332,132529,122327
829,470,332,132559,122342
832,476,332,132583,122351
834,487,332,132583,122371
836,494,332,132615,122384
839,498,332,132676,122384
841,502,332,132707,122397
844,508,332,132707,122423
846,510,332,132762,122423
849,514,332,132762,122436
851,516,332,132755,122449
854,517,332,132845,122449
857,518,332,132845,122474
859,518,332,132880,122476
862,519,332,132924,122476
864,519,332,132949,122495
867,520,332,132949,122518
869,520,332,132998,122518
872,520,332,132998,122537
874,520,332,133030,122538
876,521,332,133047,122538
879,520,332,133099,122555
881,520,332,133118,122572
884,520,332,133118,122579
886,521,332,133141,122592
889,521,332,133177,122592
891,521,332,133200,122607
893,521,332,133200,122621
897,520,332,133222,122627
899,520,332,133247,122627
902,520,332,133263,122639
904,520,332,133290,122650
907,520,332,133304,122646
909,520,332,133336,122660
912,520,332,133366,122661
914,520,332,133378,122677
916,520,332,133378,122688
919,519,332,133401,122690
921,519,332,133410,122690
924,519,332,133429,122702
926,519,332,133444,122707
929,519,332,133459,122716
931,519,332,133474,122724
933,519,332,133493,122724
936,519,332,133508,122733
939,519,332,133521,122738
942,519,332,133557,122742
944,519,332,133557,122751
947,519,332,133563,122751
949,520,332,133573,122760
952,519,332,133599,122767
954,519,332,133611,122774
956,519,332,133621,122771
959,519,332,133642,122785
961,520,332,133643,122785
964,520,332,133663,122791
966,520,332,133676,122797
969,520,332,133693,122810
971,520,332,133711,122807
973,520,332,133725,122810
976,521,332,133732,122823
978,521,332,133747,122819
982,521,332,133757,122826
984,520,332,133776,122838
987,521,332,133786,122844
989,522,332,133790,122847
992,522,332,133809,122855
994,522,332,133820,122855
996,522,332,133823,122862
999,523,332,133840,122860
1001,523,332,133835,122864
1004,523,332,133830,122863
1006,524,332,133821,122853
1009,524,332,133814,122842
1011,525,332,133783,122840
1013,525,332,133765,122837
1016,525,332,133730,122803
1018,525,332,133685,122786
1021,526,332,133625,122757
1024,526,332,133546,122723
1027,526,332,133449,122684
1029,526,332,133328,122623
1032,526,332,133199,122570
1034,526,332,133049,122501
1036,526,332,132894,122443
1039,526,332,132738,122362
1041,526,332,132582,122299
1044,526,332,132401,122224
1046,526,332,132237,122152
1049,525,332,132061,122085
1051,524,332,131891,122013
1053,523,332,131729,121942
1056,522,332,131560,121869
1058,521,332,131396,121818
1061,519,332,131227,121743
1063,517,332,131082,121679
1067,517,332,130930,121621
1069,515,332,130802,121564
1072,512,332,130667,121513
1074,509,332,130544,121466
1076,507,332,130433,121416
1079,506,332,130336,121382
1081,504,332,130255,121347
1084,502,332,130175,121312
1086,500,332,130107,121292
1089,499,332,130047,121264
1091,497,332,129992,121248
1093,496,332,129949,121225
1096,494,332,129901,121207
1098,493,332,129869,121169
1101,492,332,129827,121176
1103,491,332,129807,121168
1106,491,332,129777,121158
1108,490,332,129759,121149
1112,490,332,129736,121148
1114,490,332,129731,121141
1116,490,332,129726,121139
1119,490,332,129721,121141
1121,490,332,129712,121146
1124,490,332,129712,121138
1126,490,332,129720,121144
1129,491,332,129720,121150
1131,491,332,129730,121159
1133,491,332,129738,121159
1136,491,332,129754,121174
1138,492,332,129758,121172
1141,492,332,129775,121184
1143,492,332,129799,121191
1146,493,332,129811,121202
1148,493,332,129842,121209
1152,494,332,129842,121227
1154,494,332,129897,121237
1156,495,332,129906,121237
1159,495,333,129940,121262
1161,496,332,129969,121262
1164,496,332,129969,121280
1166,496,332,130035,121292
1169,497,332,130071,121292
1171,497,332,130099,121328
1173,497,333,130099,121343
1176,497,333,130178,121358
1178,498,332,130213,121358
1181,498,332,130261,121390
1183,498,332,130296,121405
1186,499,332,130296,121428
1188,499,332,130378,121435
1191,500,333,130420,121435
1193,500,333,130470,121481
1196,501,332,130470,121499
1199,501,333,130546,121519
1201,501,332,130578,121519
1204,502,332,130633,121530
1206,502,333,130670,121563
1209,503,333,130712,121589
1211,503,332,130712,121609
1213,504,333,130760,121623
1216,504,333,130844,121647
1218,504,333,130889,121647
1221,504,333,130925,121675
1223,504,332,130925,121694
1226,504,333,130970,121710
1228,505,333,131047,121710
1231,505,333,131085,121731
1233,505,333,131133,121759
1235,505,333,131133,121773
1239,506,333,131206,121786
1241,506,332,131206,121806
1244,506,333,131269,121822
1246,506,333,131306,121822
1249,506,333,131356,121840
1251,506,333,131390,121866
1253,506,333,131422,121866
1256,506,333,131422,121890
1258,506,333,131464,121915
1261,506,333,131528,121933
1263,506,333,131528,121951
1266,506,333,131582,121964
1268,506,333,131656,121964
1271,506,333,131683,121979
1273,506,333,131683,122013
1275,506,333,131718,122027
1278,507,333,131797,122027
1281,506,333,131839,122039
1284,507,333,131875,122052
1286,506,333,131875,122088
1289,506,333,131950,122100
1291,506,333,131979,122100
1293,506,333,132014,122118
1296,506,333,132014,122131
1298,506,333,132043,122145
1301,506,333,132095,122145
1303,507,333,132127,122160
1306,507,333,132127,122173
1308,506,333,132149,122173
1311,507,333,132164,122184
1313,507,333,132164,122200
1315,507,333,132184,122198
1318,507,333,132193,122198
1320,506,333,132197,122204
1324,507,333,132197,122200
1326,507,333,132198,122197
1329,508,333,132181,122197
1331,507,333,132175,122200
1333,508,333,132164,122199
1336,508,333,132164,122184
1338,508,333,132154,122180
1341,508,333,132120,122180
1343,508,333,132096,122169
1346,509,333,132096,122142
1348,510,333,132072,122134
1351,510,333,132042,122134
1353,510,333,131984,122121
1355,511,333,131940,122114
1358,511,333,131940,122073
1536,446,333,132004,122125
1538,444,333,132041,122155
1541,444,333,132075,122156
1543,447,333,132094,122171
1546,452,333,132117,122176
1548,461,333,132155,122190
1551,468,333,132194,122202
1553,475,333,132226,122228
1555,481,333,132255,122235
1558,488,333,132273,122243
1560,496,333,132314,122259
1563,499,333,132342,122273
1565,504,333,132370,122280
1568,509,333,132400,122294
1570,511,333,132438,122306
1572,514,333,132450,122323
1575,516,333,132483,122326
1577,516,333,132510,122334
1581,517,333,132534,122348
1583,517,333,132561,122355
1586,518,333,132585,122365
1588,519,333,132613,122381
1591,519,333,132639,122378
1593,520,333,132657,122394
1595,520,333,132681,122397
1598,520,333,132705,122417
1600,520,333,132731,122415
1603,520,333,132731,122428
1605,520,333,132780,122440
1608,521,333,132800,122440
1610,520,333,132831,122461
1612,520,333,132845,122468
1615,520,333,132860,122478
1617,520,333,132890,122481
1620,520,333,132911,122494
1623,520,333,132920,122491
1626,520,333,132920,122496
1628,520,333,132951,122501
1631,520,333,132971,122501
1633,519,333,132996,122524
1635,519,333,132999,122529
1638,520,333,133023,122536
1640,519,333,133023,122539
1643,519,333,133052,122555
1645,519,333,133067,122556
1648,519,333,133067,122558
1650,519,333,133094,122565
1652,519,333,133109,122565
1655,519,333,133134,122584
1657,519,333,133134,122584
1660,518,333,133146,122593
1662,518,333,133172,122593
1666,518,333,133191,122605
1668,518,333,133209,122607
1671,518,333,133214,122619
1673,518,333,133227,122618
1675,519,333,133243,122618
1678,519,333,133257,122627
1680,519,333,133257,122639
1683,519,333,133268,122640
1685,520,333,133293,122640
1688,520,333,133310,122646
1690,520,333,133326,122657
1692,520,333,133326,122660
1695,520,333,133342,122672
1697,521,333,133359,122672
1700,521,333,133369,122676
1702,521,333,133369,122682
1705,521,333,133378,122686
1708,522,333,133398,122686
1711,522,333,133415,122692
1713,523,333,133415,122697
1715,523,333,133426,122704
1718,524,332,133437,122704
1720,524,333,133446,122704
1723,524,333,133450,122707
1725,524,332,133450,122700
1728,525,333,133437,122695
1730,525,333,133424,122695
1732,525,333,133410,122696
1735,526,332,133376,122666
1737,526,333,133341,122666
1740,526,332,133341,122628
1742,526,333,133284,122606
1745,527,332,133155,122606
1747,527,333,133155,122526
1751,527,332,133078,122486
1753,527,333,132862,122486
1755,527,332,132740,122429
1758,527,333,132740,122310
1760,527,332,132605,122253
1763,527,332,132332,122253
1765,527,332,132185,122194
1768,526,332,132185,122071
1770,526,333,131882,122071
1772,525,332,131720,122009
1775,523,333,131720,121872
1777,522,332,131575,121813
1780,521,333,131259,121813
1782,520,332,131121,121748
1785,517,332,131121,121630
1787,515,332,130985,121574
1790,514,332,130842,121574
1793,512,332,130615,121539
1795,510,332,130506,121498
1798,506,332,130506,121392
1800,504,332,130418,121369
1803,503,332,130238,121369
1805,501,332,130168,121338
1808,500,332,130168,121279
1810,497,332,130108,121257
1812,496,332,130054,121257
1815,494,332,129956,121232
1817,494,332,129915,121226
1820,493,332,129915,121205
1822,491,332,129883,121191
1825,491,332,129813,121175
1827,490,332,129803,121171
1830,490,332,129803,121149
1832,490,332,129783,121144
1835,490,332,129767,121144
1838,490,332,129752,121145
1840,490,332,129747,121142
1843,490,332,129742,121145
1845,490,332,129736,121147
1848,490,332,129748,121143
1850,490,332,129748,121152
1852,491,332,129748,121162
1855,491,332,129759,121162
1857,491,332,129761,121161
1860,491,332,129778,121172
1862,492,332,129806,121177
1865,492,332,129819,121178
1867,493,332,129830,121195
1870,493,332,129837,121208
1872,493,332,129867,121214
1874,494,332,129880,121226
1878,494,332,129908,121239
1880,495,332,129930,121250
1883,495,332,129968,121256
1885,496,332,129995,121267
1888,497,332,130029,121280
1890,497,332,130053,121291
1892,497,332,130074,121307
1895,497,332,130101,121313
1897,498,332,130138,121335
1900,499,332,130177,121341
1902,499,332,130212,121370
1905,499,332,130247,121381
1907,500,332,130298,121398
1910,500,332,130336,121410
1912,501,332,130374,121426
1914,501,332,130404,121446
1917,501,332,130443,121462
1920,501,332,130481,121480
1923,501,332,130523,121487
1925,502,332,130556,121510
1928,502,332,130596,121525
1930,503,332,130643,121534
1932,503,332,130681,121558
1935,504,332,130719,121578
1937,504,332,130758,121591
1940,504,332,130800,121606
1942,504,332,130842,121626
1945,504,332,130877,121640
1947,505,332,130910,121652
1950,505,332,130932,121674
1952,505,332,130978,121691
1954,505,332,131020,121694
1957,505,332,131059,121717
1959,505,332,131088,121734
1963,505,332,131121,121751
1965,505,332,131146,121761
1968,505,331,131187,121772
1970,506,331,131219,121793
1972,506,331,131252,121808
1975,506,331,131292,121821
1977,506,331,131326,121843
1980,506,332,131358,121847
1982,507,332,131390,121867
1985,507,332,131422,121885
1987,507,331,131462,121898
1990,508,331,131502,121908
1992,508,331,131541,121930
1994,507,331,131580,121942
1997,507,331,131605,121957
1999,507,332,131645,121978
2002,507,331,131678,121994
2004,507,331,131713,122003
2008,507,331,131749,122017
2010,507,331,131794,122035
2012,507,331,131817,122048
2015,507,331,131842,122053
2017,507,331,131879,122064
2020,507,331,131904,122077
2022,507,331,131920,122080
2025,508,331,131940,122090
2027,508,331,131960,122103
2030,508,331,131974,122106
2032,508,331,131994,122109
2034,508,331,131996,122114
2037,507,331,132003,122123
2039,507,331,132019,122125
2042,507,331,132017,122117
2044,508,331,132010,122115
2048,508,331,132003,122116
2050,508,331,132001,122117
2052,508,331,131998,122116
2055,508,331,131993,122107
2057,508,331,131961,122101
2060,508,332,131941,122093
2062,508,331,131924,122074
2065,509,331,131924,122065
2067,509,331,131874,122055
2070,510,331,131838,122055
2072,511,331,131816,122029
2074,511,331,131782,122006
2077,511,331,131751,121994
2079,511,331,131707,121978
2082,512,332,131677,121963
2084,512,331,131643,121946
2087,512,331,131643,121929
2089,512,331,131565,121909
2092,512,331,131519,121909
2095,513,331,131483,121880
2097,513,331,131441,121864
2100,515,331,131410,121849
2102,516,331,131410,121833
2105,516,331,131330,121817
2107,515,331,131296,121799
2110,515,331,131296,121782
2112,515,331,131234,121773
2114,516,331,131199,121773
2117,516,331,131167,121749
2119,515,331,131167,121738
2122,515,331,131136,121733
2124,515,331,131093,121733
2127,514,331,131067,121717
2129,512,331,131050,121699
2131,511,331,131050,121692
2135,510,331,131010,121684
2137,509,331,130991,121684
2140,508,331,130983,121683
2142,507,331,130983,121674
2145,506,331,130971,121677
2147,506,331,130959,121677
2150,505,331,130961,121665
2152,505,331,130954,121667
2154,505,331,130954,121669
2157,505,331,130964,121679
2159,505,331,130968,121679
2162,504,331,130972,121679
2164,504,331,130972,121685
2167,505,331,130991,121696
2169,505,331,131014,121696
2171,505,331,131032,121701
2174,505,331,131039,121711
2177,505,331,131049,121711
2180,505,331,131067,121732
2182,506,331,131067,121737
2185,506,331,131107,121737
2187,506,331,131107,121754
2190,506,331,131128,121769
2192,507,331,131175,121769
2194,506,331,131203,121778
2197,506,331,131226,121799
2199,506,331,131253,121799
2202,507,331,131253,121815
2204,507,331,131273,121832
2207,508,331,131319,121832
2209,508,331,131319,121856
2211,508,331,131355,121864
2214,509,331,131407,121864
2216,510,331,131448,121876
2220,511,331,131448,121901
2222,512,331,131501,121901
2225,518,331,131501,121921
2227,525,331,131527,121940
2230,534,331,131588,121940
2232,549,331,131588,121962
2234,562,331,131630,121977
2237,572,331,131682,121991
2239,575,331,131682,122001
2242,566,331,131724,122020
2244,546,331,131744,122031
2247,528,331,131778,122031
2249,511,331,131844,122045
2251,480,331,131844,122066
2254,471,331,131890,122066
2256,461,331,131919,122078
2259,448,331,131919,122099
2262,445,331,131947,122099
2265,445,331,132011,122116
2267,448,331,132040,122126
2270,455,331,132040,122149
2272,462,331,132073,122156
2274,468,331,132091,122156
2277,474,331,132116,122172
2279,481,331,132151,122184
2282,486,331,132179,122188
2284,496,331,132211,122205
2287,501,331,132255,122213
2289,505,331,132275,122221
2291,508,331,132275,122244
2294,513,331,132312,122253
2296,515,331,132330,122253
2299,516,331,132360,122269
2301,517,331,132385,122273
2305,517,331,132409,122288
2307,519,331,132431,122298
2310,519,331,132478,122303
2312,518,331,132499,122314
2314,519,331,132499,122333
2317,519,331,132521,122333
2319,520,331,132538,122341
2322,520,331,132579,122357
2324,520,331,132591,122356
2327,520,331,132607,122367
2329,520,331,132633,122379
2331,520,331,132660,122383
2334,520,331,132681,122391
2336,520,331,132687,122398
2339,520,331,132724,122403
2341,521,331,132730,122420
2344,520,331,132745,122426
2347,521,331,132773,122426
2350,520,331,132789,122432
2352,521,331,132800,122443
2354,520,331,132812,122449
2357,520,331,132821,122459
2359,520,331,132847,122465
2362,520,331,132857,122469
2364,520,331,132870,122476
2367,520,331,132880,122478
2369,520,330,132908,122490
2371,519,331,132929,122500
2374,520,331,132934,122499
2376,519,331,132951,122508
2379,519,331,132954,122509
2381,519,331,132965,122515
2384,519,331,132981,122516
2386,520,331,132990,122523
2390,520,331,132995,122533
2392,520,331,133021,122529
2394,520,331,133024,122542
2397,520,331,133046,122540
2399,520,330,133061,122550
2402,521,331,133069,122547
2404,521,331,133071,122560
2407,521,331,133074,122567
2409,521,331,133093,122569
2411,521,331,133107,122572
2414,521,330,133123,122573
2416,521,331,133122,122578
2419,521,331,133155,122579
2421,521,331,133166,122590
2424,521,331,133174,122593
2426,521,331,133182,122594
2429,522,331,133181,122593
2432,522,331,133193,122611
2434,522,330,133208,122611
2437,522,331,133206,122610
2439,523,331,133211,122621
2442,523,331,133217,122619
2444,523,330,133224,122615
2447,523,330,133222,122621
2449,524,331,133224,122621
2451,524,331,133219,122617
2454,524,331,133207,122614
2456,525,330,133184,122609
2459,525,330,133168,122591
2461,525,330,133125,122575
2464,525,330,133091,122556
2466,525,331,133032,122523
2469,526,331,132968,122494
2471,526,330,132897,122460
2473,526,331,132804,122416
2477,526,331,132696,122366
2479,526,330,132586,122314
2482,526,330,132456,122266
2484,526,331,132332,122203
2487,526,331,132200,122150
2489,526,331,132066,122088
2491,525,331,131910,122021
2494,525,331,131761,121966
2496,524,331,131614,121901
2499,523,331,131461,121839
2501,522,331,131315,121780
2504,521,331,131169,121710
2506,518,331,131037,121659
2509,516,331,130895,121598
2511,515,331,130775,121554
2513,513,331,130654,121504
2516,509,331,130541,121461
2519,507,330,130443,121410
2522,506,330,130443,121375
2524,503,331,130265,121345
2527,502,330,130191,121345
2529,499,331,130135,121285
2531,498,331,130078,121258
2534,496,331,130015,121239
2536,495,331,130015,121220
2539,494,331,129917,121199
2541,493,331,129877,121193
2544,492,330,129877,121171
2546,491,331,129814,121157
2549,491,331,129793,121157
2551,489,331,129779,121151
2553,489,331,129753,121137
2556,489,331,129740,121137
2558,489,331,129740,121133
2562,489,331,129712,121128
2564,489,331,129712,121131
2567,489,331,129712,121136
2569,490,331,129712,121132
2571,490,331,129707,121132
2574,491,331,129724,121138
2576,491,331,129724,121145
2579,491,331,129729,121146
2581,491,331,129744,121146
2584,492,331,129762,121151
2586,492,331,129780,121167
2589,492,331,129783,121185
2591,493,331,129814,121195
2593,494,331,129833,121195
2596,494,331,129849,121208
2598,494,331,129849,121219
2601,494,331,129885,121236
2604,495,331,129927,121236
2607,495,331,129969,121248
2609,496,331,129983,121264
2611,496,331,129983,121279
2614,497,331,130051,121279
2616,497,331,130077,121301
2619,497,331,130112,121314
2621,498,331,130112,121335
2624,498,331,130138,121354
2626,499,331,130220,121354
2629,499,331,130255,121366
2631,499,331,130255,121396
2633,499,331,130296,121413
2636,499,331,130365,121413
2638,500,331,130406,121427
2641,500,331,130437,121452
2643,501,331,130437,121474
2647,501,331,130518,121499
2649,502,331,130559,121499
2651,502,331,130600,121515
2654,502,331,130633,121536
2656,502,331,130662,121536
2659,502,331,130662,121570
2661,503,331,130699,121589
2664,503,331,130773,121589
2666,503,331,130773,121619
2669,503,331,130810,121631
2671,503,331,130875,121631
2673,503,331,130908,121646
2676,504,331,130908,121674
2678,505,331,130940,121682
2681,505,331,131008,121682
2683,505,331,131045,121702
2686,505,331,131045,121728
2689,505,331,131098,121728
2691,505,331,131140,121746
2694,506,332,131140,121772
2696,506,332,131163,121781
2699,506,332,131223,121781
2701,506,332,131263,121796
2704,506,332,131263,121825
2706,506,331,131299,121838
2709,507,332,131325,121838
2711,507,332,131397,121855
2713,507,332,131423,121871
2716,506,332,131423,121897
2718,507,332,131465,121907
2721,507,332,131524,121907
2723,507,332,131565,121928
2726,507,332,131565,121950
2728,507,332,131592,121958
2731,508,332,131624,121958
2734,507,332,131685,121967
2736,508,332,131685,121991
2739,508,332,131707,122004
2741,508,332,131738,122004
2744,508,332,131778,122013
2746,508,332,131789,122035
2749,508,332,131789,122035
2751,507,332,131819,122051
2753,507,332,131821,122051
2756,507,332,131832,122057
2758,507,332,131843,122049
2761,507,332,131845,122056
2763,508,332,131842,122055
2766,507,332,131841,122053
2768,507,332,131835,122060
2770,507,332,131835,122050
2774,507,332,131828,122050
2776,507,332,131809,122045
2779,507,332,131808,122035
2781,507,332,131790,122026
2784,507,332,131766,122011
2786,507,332,131738,122006
2789,507,332,131705,121994
2791,507,332,131685,121977
2793,507,332,131647,121963
2796,507,332,131619,121953
2798,508,332,131594,121938
2801,509,332,131558,121920
2803,510,332,131527,121909
2806,510,332,131500,121884
2808,510,332,131453,121865
2810,510,332,131416,121853
2813,510,332,131374,121839
2816,511,332,131338,121821
2819,512,332,131297,121811
2821,512,332,131263,121795
2824,512,332,131225,121779
2826,513,332,131195,121760
2829,514,332,131168,121745
2831,514,332,131133,121735
2833,514,332,131106,121724
2836,514,332,131072,121712
2838,514,332,131034,121697
2841,514,332,131020,121687
2843,515,333,130988,121676
2846,515,332,130969,121671
2848,515,333,130952,121660
2850,514,332,130945,121653
2853,513,332,130918,121647
2855,512,332,130911,121652
2859,511,332,130898,121631
2861,510,332,130886,121634
2864,509,333,130887,121635
2866,507,332,130882,121636
2869,506,333,130863,121631
2871,505,333,130867,121639
2873,505,332,130885,121642
2876,504,332,130880,121647
2878,504,332,130885,121649
2881,504,332,130891,121645
2883,504,333,130904,121661
2886,504,333,130902,121658
2888,504,333,130922,121668
2890,504,332,130925,121674
2893,505,333,130942,121685
2895,505,333,130953,121691
2898,505,333,130971,121695
2900,504,333,130990,121704
2904,504,333,131004,121714
2906,505,333,131034,121715
2909,505,333,131047,121734
2911,505,333,131075,121740
2913,505,333,131100,121752
2916,505,333,131113,121761
2918,505,333,131136,121774
2921,505,333,131169,121779
2923,506,333,131177,121789
2926,506,333,131217,121801
2928,506,333,131251,121818
2930,507,333,131273,121798
2933,507,333,131292,121840
2935,507,333,131334,121849
2938,507,333,131360,121863
2940,508,333,131389,121876
2944,509,333,131419,121880
2946,510,333,131440,121897
2949,512,333,131465,121905
2951,514,333,131505,121920
2953,518,333,131533,121936
2956,532,333,131558,121941
2958,543,333,131597,121953
2961,550,333,131620,121968
2963,566,333,131651,121969
2966,572,333,131670,121989
2968,574,333,131708,121999
2970,558,333,131735,122008
2973,541,333,131777,122024
2975,517,333,131793,122037
2978,485,333,131827,122050
2980,472,333,131851,122051
2983,463,333,131851,122068
2985,454,333,131905,122084
2989,448,333,131936,122084
2991,445,333,131970,122105
2993,448,333,131990,122115
2996,451,333,132016,122126
2998,457,333,132049,122133
3001,463,333,132067,122152
3003,476,333,132091,122149
3006,481,333,132091,122164
3008,487,333,132142,122179
3010,492,333,132164,122179
3013,500,333,132207,122196
3015,503,333,132218,122199
3018,509,333,132242,122219
3020,511,333,132242,122230
3023,514,333,132284,122235
3025,517,333,132309,122242
3028,517,333,132309,122252
3031,518,333,132348,122258
3033,518,333,132379,122258
3036,519,333,132405,122285
3038,519,333,132405,122286
3041,520,333,132421,122298
3043,520,333,132457,122298
3046,520,333,132485,122308
3048,521,333,132501,122318
3050,521,333,132501,122329
3053,521,333,132542,122341
3055,522,333,132554,122341
3058,521,333,132567,122354
3060,520,333,132567,122350
3063,520,333,132590,122366
3065,520,333,132615,122366
3068,520,333,132639,122363
3070,519,333,132644,122378
3073,519,333,132644,122391
3076,519,333,132683,122396
3078,519,333,132695,122396
3081,519,333,132702,122406
3083,519,333,132702,122408
3086,518,333,132720,122422
3088,518,333,132742,122422
3090,518,333,132765,122421
3093,518,333,132771,122430
3095,518,333,132771,122430
3098,517,333,132782,122436
3100,517,333,132782,122445
3103,517,333,132812,122445
3105,517,333,132812,122449
3108,517,333,132825,122458
3110,518,333,132834,122458
3112,518,333,132861,122453
3116,517,333,132862,122471
3118,517,334,132873,122471
3121,517,333,132873,122475
3123,517,333,132894,122485
3126,517,333,132902,122485
3128,518,333,132902,122487
3130,518,333,132923,122493
3133,519,333,132944,122493
3135,518,333,132948,122504
3138,518,333,132948,122510
3140,518,334,132971,122510
3143,519,333,132971,122510
3145,519,333,132977,122520
3148,519,334,132989,122520
3150,519,333,132989,122527
3152,520,333,133003,122524
3155,520,334,133007,122535
3158,520,334,133007,122526
3161,520,333,133014,122533
3163,520,333,133023,122536
3166,521,334,133027,122536
3168,521,334,133031,122539
3170,522,333,133031,122538
3173,523,334,133018,122538
3175,523,334,133011,122537
3178,523,334,133011,122530
3180,524,334,132998,122530
3183,524,334,132975,122519
3185,524,334,132928,122507
3188,525,334,132928,122467
3190,525,334,132885,122444
3192,525,334,132834,122444
3195,525,334,132770,122418
3197,525,334,132703,122383
3201,525,334,132619,122338
3203,525,334,132529,122300
3206,526,334,132290,122247
3208,526,334,132181,122195
3210,526,334,132181,122077
3213,526,334,132039,122020
3215,526,334,131902,122020
3218,525,334,131767,121963
3220,525,334,131622,121893
3223,524,334,131461,121834
3225,523,334,131319,121779
3228,522,334,131039,121712
3230,521,334,130901,121659
3232,520,334,130901,121549
3235,519,334,130768,121549
3237,515,334,130643,121503
3240,513,334,130542,121459
3243,511,334,130432,121402
3246,509,334,130331,121365
3248,506,334,130250,121332
3250,504,334,130162,121300
3253,502,334,130089,121273
3255,501,334,130023,121239
3258,500,334,129976,121216
3260,497,334,129908,121195
3263,496,334,129855,121173
3265,495,334,129818,121153
3268,494,334,129784,121138
3270,492,334,129744,121126
3272,491,334,129710,121111
3275,490,334,129683,121106
3277,490,334,129657,121092
3280,489,334,129646,121091
3282,489,334,129618,121083
3286,489,334,129606,121080
3288,489,334,129606,121079
3290,489,334,129599,121070
3293,489,334,129592,121076
3295,489,334,129596,121078
3298,489,334,129596,121077
3300,489,334,129588,121080
3303,490,334,129600,121082
3305,491,334,129601,121089
3308,491,334,129603,121091
3310,491,334,129619,121097
3312,491,334,129638,121106
3315,492,334,129662,121121
3317,492,334,129681,121126
3320,493,334,129693,121128
3322,493,334,129710,121148
3325,493,334,129722,121151
3328,493,334,129744,121166
3330,494,334,129766,121178
3333,495,334,129806,121193
3335,495,334,129824,121202
3338,495,334,129866,121204
3340,495,334,129884,121224
3343,496,334,129914,121233
3345,497,334,129940,121246
3348,498,334,129967,121253
3350,498,334,129997,121270
3352,498,334,130035,121288
3355,498,334,130058,121300
3357,498,334,130090,121314
3360,499,334,130123,121333
3362,499,334,130161,121340
3365,500,334,130187,121351
3367,500,334,130219,121363
3369,500,334,130253,121380
3373,501,334,130285,121394
3375,501,334,130318,121417
3378,501,334,130351,121427
3380,502,334,130388,121438
3383,502,334,130412,121455
3385,502,334,130443,121461
3388,503,334,130482,121483
3390,503,334,130516,121497
3392,503,334,130550,121505
3395,503,334,130574,121524
3397,504,334,130610,121537
3400,504,334,130630,121541
3402,504,334,130660,121561
3405,505,334,130687,121574
3407,505,334,130720,121579
3409,505,334,130743,121565
3412,506,334,130775,121607
3415,506,335,130799,121620
3418,506,334,130842,121632
3420,506,334,130848,121638
3423,507,334,130890,121655
3425,506,334,130910,121670
3428,506,334,130942,121670
3430,506,334,130981,121689
3432,506,334,131008,121702
3435,507,335,131034,121720
3437,507,335,131065,121729
3440,507,334,131065,121738
3442,507,334,131132,121756
3445,507,335,131158,121756
3447,507,334,131198,121777
3449,507,335,131221,121792
3452,508,335,131249,121801
3454,508,334,131249,121813
3458,508,335,131302,121819
3460,508,335,131324,121832
3463,508,335,131324,121838
3465,508,335,131374,121857
3468,508,335,131388,121857
3470,508,335,131419,121882
3472,508,335,131422,121874
3475,509,335,131435,121879
3477,508,335,131435,121882
3480,508,335,131444,121891
3482,508,335,131450,121886
3485,508,335,131450,121886
3487,508,335,131454,121890
3489,508,335,131449,121890
3492,508,335,131442,121883
3494,508,335,131442,121874
3497,508,335,131437,121869
3500,508,335,131399,121869
3503,508,335,131392,121868
3505,508,335,131368,121846
3508,508,335,131339,121838
3510,508,335,131319,121815
3512,508,335,131288,121815
3515,508,335,131270,121796
3517,508,335,131270,121787
3520,508,335,131242,121777
3522,508,335,131176,121777
3525,508,335,131161,121762
3527,508,335,131119,121731
3529,508,335,131119,121714
3532,508,335,131055,121714
3534,509,335,131019,121707
3537,509,335,130983,121673
3539,510,335,130983,121657
3543,510,335,130951,121642
3545,511,335,130877,121642
3548,511,335,130852,121636
3550,511,335,130852,121593
3552,512,335,130818,121587
3555,512,335,130757,121587
3557,512,335,130734,121576
3560,512,335,130710,121571
3562,513,335,130710,121545
3565,514,335,130668,121537
3567,515,335,130638,121537
3569,515,335,130627,121528
3572,515,335,130610,121512
3574,515,335,130594,121512
3577,515,335,130594,121505
3579,515,335,130582,121506
3582,515,335,130561,121506
3585,515,335,130561,121500
3588,516,335,130562,121495
3590,516,335,130547,121495
3592,515,335,130552,121496
3595,513,335,130552,121503
3597,512,335,130560,121501
3600,511,335,130560,121501
3602,510,335,130570,121503
3605,508,335,130570,121511
3607,507,335,130575,121511
3609,506,335,130587,121519
3612,505,335,130587,121533
3614,505,335,130600,121532
3617,505,335,130623,121532
3619,505,335,130636,121545
3622,504,335,130636,121558
3624,505,335,130656,121563
3628,505,335,130673,121563
3630,505,335,130711,121580
3632,506,335,130731,121587
3635,505,335,130731,121603
3637,506,335,130751,121611
3640,506,335,130784,121611
3642,506,335,130812,121615
3645,506,335,130812,121643
3647,506,335,130831,121651
3649,506,336,130863,121651
3652,507,336,130909,121663
3654,507,335,130937,121678
3657,506,336,130937,121684
3659,507,335,130967,121695
3662,507,336,131021,121701
3664,507,335,131038,121720
3667,507,336,131038,121734
3670,507,335,131075,121754
3672,507,336,131093,121754
3675,507,336,131124,121767
3677,507,336,131156,121771
3680,508,336,131189,121789
3682,510,336,131209,121795
3685,511,336,131269,121802
3687,512,336,131289,121820
3689,515,336,131289,121844
3692,518,336,131327,121844
3694,528,336,131340,121850
3697,539,336,131386,121864
3699,559,336,131421,121872
3702,568,336,131431,121881
3704,573,336,131460,121899
3707,573,336,131485,121908
3709,563,336,131525,121923
3712,526,336,131538,121934
3715,508,336,131564,121944
3717,489,336,131603,121958
3720,475,336,131629,121964
3722,455,336,131652,121975
3725,449,336,131671,121987
3727,444,336,131698,121992
3729,443,336,131713,121999
3732,445,336,131742,122015
3734,450,336,131760,122031
3737,463,336,131780,122038
3739,470,336,131805,122043
3742,476,336,131828,122054
3744,483,336,131859,122063
3747,488,336,131891,122074
3749,499,336,131899,122080
3751,503,336,131923,122091
3755,506,336,131940,122096
3757,509,336,131956,122117
3760,512,336,131982,122118
3762,516,336,131994,122121
3765,516,336,132012,122134
3767,517,336,132039,122138
3769,518,336,132066,122149
3772,519,336,132088,122160
3774,519,336,132102,122166
3777,519,336,132122,122170
3779,519,336,132140,122176
3782,520,336,132143,122185
3784,520,336,132176,122199
3787,520,336,132178,122200
3789,520,336,132201,122205
3791,520,336,132222,122204
3794,520,336,132235,122222
3796,521,336,132250,122228
3800,521,336,132266,122237
3802,521,336,132269,122242
3805,520,336,132284,122248
3807,521,336,132294,122249
3809,521,336,132313,122258
3812,521,336,132328,122262
3814,521,336,132343,122273
3817,521,336,132360,122271
3819,521,336,132370,122279
3822,520,336,132382,122281
3824,520,336,132401,122293
3827,520,336,132412,122293
3829,520,336,132422,122303
3831,520,336,132438,122312
3834,520,336,132443,122313
3836,519,336,132454,122323
3840,519,336,132472,122335
3842,518,336,132485,122330
3845,519,336,132495,122334
3847,519,336,132514,122344
3849,518,336,132520,122317
3852,518,336,132530,122353
3854,518,336,132553,122352
3857,518,336,132553,122357
3859,519,336,132563,122363
3862,519,336,132573,122371
3864,520,336,132587,122375
3867,520,336,132599,122373
3869,519,336,132607,122380
3871,519,336,132625,122380
3874,520,336,132632,122394
3876,520,336,132652,122390
3879,520,336,132654,122403
3881,520,336,132672,122395
3885,520,336,132688,122410
3887,520,336,132691,122418
3889,521,336,132692,122410
3892,521,336,132725,122424
3894,521,336,132722,122428
3897,521,336,132727,122428
3899,522,336,132738,122426
3902,522,336,132738,122437
3904,522,336,132740,122436
3907,522,336,132749,122436
3909,523,336,132768,122445
3911,523,336,132755,122430
3914,523,336,132742,122439
3916,523,336,132739,122425
3919,524,336,132724,122427
3921,525,336,132700,122405
3924,524,336,132700,122393
3927,525,336,132636,122375
3929,525,336,132587,122375
3932,526,336,132531,122324
3934,527,336,132456,122283
3937,527,336,132384,122253
3939,527,336,132384,122213
3942,527,336,132197,122169
3944,527,336,132088,122119
3947,527,336,132088,122064
3949,527,336,131843,122007
3951,527,336,131717,122007
3954,527,336,131592,121900
3956,526,337,131592,121838
3959,525,337,131441,121780
3961,525,336,131170,121780
3964,524,336,131031,121715
3966,522,337,130910,121604
3969,521,337,130910,121554
3972,519,337,130647,121500
3974,518,337,130538,121500
3977,516,337,130430,121416
3979,512,336,130430,121375
3982,509,336,130335,121334
3984,508,336,130162,121334
3987,506,337,130098,121306
3989,503,336,130027,121246
3991,501,336,130027,121226
3994,499,336,129909,121194
3996,498,337,129854,121194
3999,497,337,129814,121184
4001,494,337,129814,121143
4004,493,336,129729,121136
4006,493,336,129694,121136
4008,492,337,129672,121120
4012,491,337,129641,121094
4014,491,337,129623,121094
4017,490,337,129600,121085
4019,489,337,129600,121078
4022,489,337,129592,121065
4024,489,337,129561,121065
4027,489,337,129555,121073
4029,489,336,129555,121063
4031,490,337,129547,121070
4034,490,337,129544,121070
4036,490,337,129559,121072
4039,491,337,129560,121076
4041,491,337,129560,121086
4044,492,337,129576,121082
4046,492,337,129590,121082
4048,492,336,129593,121096
4051,492,337,129593,121105
4054,493,337,129613,121112
4057,493,336,129643,121112
4059,493,337,129662,121124
4062,494,337,129662,121138
4064,494,337,129703,121138
4067,494,337,129737,121158
4069,495,337,129737,121173
4071,496,337,129744,121173
4074,496,337,129801,121177
4076,496,336,129820,121197
4079,497,337,129820,121214
4081,497,336,129849,121232
4084,498,337,129897,121232
4086,498,337,129926,121233
4088,499,337,129948,121256
4091,499,336,129948,121273
4093,499,336,129976,121285
4097,500,337,130026,121285
4099,499,337,130056,121298
4102,500,337,130056,121322
4104,500,336,130079,121336
4107,500,337,130100,121336
4109,500,337,130164,121345
4111,500,337,130184,121354
4114,501,336,130184,121379
4116,501,336,130223,121397
4119,501,337,130266,121397
4121,501,336,130287,121399
4124,502,337,130287,121420
4126,503,337,130318,121434
4128,503,336,130336,121434
4131,503,336,130358,121442
4133,503,336,130382,121461
4136,503,336,130407,121461
4139,504,337,130423,121474
4142,504,337,130470,121477
4144,505,336,130484,121492
4147,505,337,130484,121506
4149,505,337,130511,121506
4151,506,337,130530,121520
4154,505,336,130551,121533
4156,506,337,130575,121530
4159,506,336,130594,121546
4161,506,337,130631,121552
4164,506,337,130646,121560
4166,506,337,130676,121571
4168,506,337,130688,121584
4171,506,336,130724,121595
4173,506,337,130741,121610
4176,506,337,130764,121608
4178,506,337,130800,121628
4182,507,336,130828,121637
4184,507,337,130848,121644
4187,507,336,130877,121658
4189,507,337,130897,121658
4191,507,336,130922,121674
4194,507,336,130940,121690
4196,508,337,130959,121699
4199,507,337,130976,121714
4201,507,336,131005,121719
4204,507,337,131024,121714
4206,507,337,131039,121726
4208,507,337,131051,121736
4211,507,336,131061,121739
4213,507,336,131066,121735
4216,507,336,131074,121738
4218,507,336,131066,121744
4221,507,336,131069,121738
4224,507,336,131065,121744
4227,507,337,131055,121741
4229,507,337,131061,121729
4231,507,337,131050,121734
4234,507,337,131051,121724
4236,507,336,131025,121721
4239,507,337,131005,121703
4241,507,337,130997,121709
4244,507,337,130973,121695
4246,507,336,130955,121686
4248,507,337,130924,121679
4251,508,337,130917,121664
4253,508,337,130897,121655
4256,508,337,130880,121649
4258,508,337,130860,121633
4261,508,337,130838,121622
4263,507,337,130810,121608
4267,508,337,130780,121599
4269,508,337,130749,121586
4271,508,337,130731,121575
4274,508,336,130699,121570
4276,508,337,130676,121561
4279,508,337,130662,121552
4281,508,337,130631,121538
4284,508,337,130609,121528
4286,508,337,130590,121518
4288,509,337,130564,121509
4291,509,337,130543,121504
4293,509,337,130531,121495
4296,510,337,130512,121489
4298,510,337,130493,121481
4301,511,337,130478,121472
4303,511,337,130468,121469
4306,511,337,130465,121474
4308,511,337,130456,121470
4311,511,337,130449,121470
4314,512,337,130436,121463
4316,513,337,130430,121462
4319,514,337,130428,121462
4321,514,337,130425,121467
4324,513,337,130427,121462
4326,513,337,130427,121466
4328,513,337,130434,121450
4331,513,337,130436,121472
4333,514,337,130446,121475
4336,514,337,130462,121481
4338,514,337,130466,121484
4341,514,337,130473,121491
4343,513,337,130481,121492
4346,513,337,130492,121500
4348,512,337,130517,121509
4350,511,337,130527,121517
4354,509,337,130544,121524
4356,508,337,130563,121523
4359,507,337,130563,121531
4361,506,337,130603,121547
4364,506,337,130616,121547
4366,505,337,130640,121570
4368,506,337,130665,121572
4371,506,337,130679,121580
4373,506,337,130679,121595
4376,505,337,130729,121607
4378,505,337,130759,121609
4381,505,337,130759,121624
4383,505,337,130795,121630
4386,506,337,130830,121630
4388,506,337,130858,121659
4390,506,337,130884,121663
4393,506,337,130900,121675
4396,506,337,130900,121684
4399,505,337,130951,121699
4401,506,337,130988,121714
4404,506,337,130988,121721
4406,506,337,131033,121726
4408,506,337,131060,121726
4411,507,337,131092,121764
4413,507,337,131092,121769
4416,507,337,131151,121783
4418,507,337,131167,121783
4421,507,337,131207,121799
4423,507,337,131227,121812
4426,507,337,131259,121833
4428,508,337,131283,121824
4430,509,337,131317,121824
4433,510,337,131347,121865
4435,511,337,131347,121876
4439,514,337,131367,121884
4441,517,337,131423,121884
4444,522,337,131450,121902
4446,539,337,131473,121918
4448,548,337,131473,121931
4451,560,337,131536,121939
4453,568,337,131553,121939
4456,573,337,131581,121959
4458,565,337,131581,121962
4461,544,337,131608,121978
4463,526,337,131649,121978
4466,505,337,131679,121991
4468,476,337,131679,122015
4470,463,337,131711,122026
4473,455,337,131752,122026
4475,448,337,131777,122036
4478,445,337,131796,122035
4481,446,337,131796,122060
4484,450,337,131839,122066
4486,455,337,131857,122066
4488,460,337,131898,122079
4491,473,337,131913,122091
4493,478,337,131924,122091
4496,488,337,131924,122111
4498,494,337,131942,122119
4501,499,337,131988,122119
4503,504,337,131988,122132
4506,508,337,132012,122143
4508,511,337,132037,122143
4510,513,337,132053,122147
4513,516,337,132077,122157
4515,516,337,132095,122157
4518,518,337,132095,122172
4520,518,337,132110,122189
4524,518,337,132138,122189
4526,518,337,132138,122197
4528,519,337,132154,122204
4531,519,337,132189,122204
4533,519,337,132189,122210
4536,520,337,132202,122213
4538,520,337,132220,122225
4541,520,337,132229,122225
4543,520,337,132266,122235
4546,520,337,132266,122245
4548,520,337,132275,122245
4550,519,337,132283,122250
4553,519,337,132283,122261
4555,519,337,132305,122262
4558,520,337,132323,122262
4560,520,337,132339,122276
4563,520,337,132339,122288
4566,520,337,132350,122283
4568,520,337,132358,122283
4571,520,337,132366,122288
4573,520,337,132386,122297
4576,519,337,132386,122299
4578,519,337,132404,122297
4581,519,337,132410,122302
4583,519,337,132417,122305
4586,519,337,132417,122318
4588,519,337,132429,122319
4590,519,337,132426,122319
4593,519,337,132451,122326
4595,519,337,132453,122330
4598,519,337,132468,122335
4600,519,337,132472,122340
4603,519,337,132495,122337
4605,519,337,132500,122343
4608,519,337,132500,122354
4611,519,337,132509,122354
4613,519,337,132514,122353
4616,519,337,132543,122359
4618,519,337,132547,122360
4621,519,337,132552,122363
4623,519,337,132558,122368
4626,519,337,132568,122380
4628,520,337,132571,122384
4630,520,337,132576,122383
4633,520,337,132587,122385
4635,520,337,132606,122390
4638,520,337,132613,122395
4640,521,337,132622,122397
4643,520,337,132628,122397
4645,521,337,132631,122401
4647,521,337,132638,122408
4651,521,337,132645,122408
4653,522,337,132653,122408
4656,522,337,132645,122409
4658,523,337,132655,122409
4661,523,337,132650,122410
4663,523,337,132663,122408
4666,523,337,132661,122408
4668,524,337,132655,122403
4670,524,337,132640,122393
4673,524,337,132628,122394
4675,525,337,132583,122370
4678,525,337,132567,122361
4680,526,337,132519,122336
4683,526,337,132476,122310
4685,526,337,132426,122282
4687,526,337,132361,122253
4690,527,337,132288,122222
4692,527,337,132200,122178
4696,527,337,132098,122138
4698,527,337,131994,122095
4701,527,337,131873,122040
4703,526,337,131769,121990
4706,526,337,131632,121930
4708,526,337,131506,121877
4710,525,337,131378,121820
4713,524,337,131242,121765
4715,522,337,131112,121712
4718,521,337,130978,121656
4720,520,337,130849,121610
4723,518,337,130726,121556
4725,516,337,130605,121514
4727,515,337,130514,121471
4730,511,337,130406,121438
4732,509,337,130319,121395
4736,507,337,130236,121353
4738,505,337,130160,121318
4741,503,337,130085,121296
4743,500,337,130030,121267
4746,499,337,129970,121247
4748,498,337,129911,121225
4750,497,337,129868,121207
4753,495,337,129819,121190
4755,494,337,129775,121175
4758,493,337,129755,121173
4760,492,337,129718,121154
4763,491,337,129687,121144
4765,491,337,129668,121132
4767,490,337,129642,121104
4770,490,337,129628,121118
4772,490,337,129619,121114
4775,490,337,129612,121116
4777,490,337,129600,121116
4781,490,337,129598,121112
4783,490,337,129592,121114
4786,491,337,129595,121113
4788,491,337,129596,121124
4790,491,337,129603,121126
4793,492,337,129613,121127
4795,492,337,129630,121131
4798,492,337,129648,121147
4800,492,337,129649,121137
4803,492,337,129665,121150
4805,492,337,129674,121165
4807,493,337,129693,121175
4810,493,337,129719,121186
4812,493,337,129727,121193
4815,494,337,129753,121206
4817,495,337,129776,121216
4820,495,337,129776,121227
4823,495,337,129833,121239
4826,496,337,129857,121239
4828,496,337,129895,121261
4830,497,337,129923,121274
4833,497,337,129956,121283
4835,497,337,129977,121294
4838,498,337,130006,121305
4840,498,337,130039,121327
4843,499,337,130039,121334
4845,499,337,130103,121351
4847,500,337,130130,121351
4850,500,337,130172,121385
4852,500,337,130196,121388
4855,501,337,130241,121406
4857,501,337,130241,121424
4860,501,337,130300,121438
4862,502,337,130341,121456
4866,502,337,130341,121461
4868,502,337,130396,121474
4870,503,337,130431,121474
4873,503,337,130463,121506
4875,504,337,130463,121515
4878,504,337,130493,121533
4880,504,337,130545,121533
4883,504,337,130574,121540
4885,504,337,130609,121562
4887,505,337,130609,121580
4890,505,337,130663,121588
4892,505,337,130687,121588
4895,505,337,130719,121613
4897,505,337,130719,121621
4900,506,337,130746,121635
4902,506,337,130798,121635
4905,506,337,130828,121650
4908,506,337,130852,121668
4910,506,337,130852,121685
4913,506,337,130913,121698
4915,507,337,130943,121698
4918,507,337,130974,121714
4920,507,337,130974,121735
4923,507,337,131031,121744
4925,507,337,131063,121744
4927,508,337,131097,121758
4930,508,337,131130,121782
4932,508,337,131155,121782
4935,508,337,131191,121804
4937,507,337,131191,121825
4940,507,337,131220,121832
4942,507,337,131280,121832
4945,507,337,131304,121850
4947,507,337,131304,121869
4950,507,337,131330,121878
4953,507,337,131373,121878
4955,507,337,131410,121889
4958,507,337,131413,121897
4960,507,337,131413,121917
4963,507,337,131443,121921
4965,507,337,131453,121921
4967,507,337,131461,121920
4970,506,337,131461,121922
4972,507,337,131462,121920
4975,507,337,131455,121920
4977,507,337,131467,121930
4980,507,337,131467,121915
4982,507,337,131430,121915
4985,507,337,131417,121914
4987,507,337,131417,121895
4989,507,337,131407,121895
4993,508,337,131370,121886
4995,507,337,131343,121878
4998,507,337,131343,121858
5000,507,337,131326,121845
5003,508,337,131262,121845
5005,508,337,131232,121836
5007,508,337,131205,121818
5010,508,337,131205,121787
5012,508,337,131167,121778
5015,508,337,131105,121778
5017,508,337,131081,121765
5020,508,337,131081,121731
5022,507,337,131053,121716
5025,508,337,131013,121716
5027,507,337,130955,121702
5029,508,337,130916,121698
5032,508,337,130916,121660
5035,508,337,130891,121652
5038,508,337,130831,121652
5040,507,337,130804,121648
5043,507,337,130804,121623
5045,507,337,130773,121615
5047,508,337,130756,121615
5050,508,337,130729,121603
5052,508,337,130704,121594
5055,508,337,130688,121586
5057,508,337,130681,121587
5060,508,337,130651,121573
5062,508,337,130634,121579
5065,509,337,130634,121562
5067,509,337,130635,121562
5069,510,337,130615,121561
5072,510,337,130614,121560
5074,510,338,130615,121555
5078,510,337,130614,121560
5080,512,338,130616,121559
5083,513,338,130607,121562
5085,514,337,130615,121569
5087,514,338,130618,121568
5090,513,337,130632,121572
5092,512,338,130629,121582
5095,512,337,130639,121578
5097,512,337,130655,121586
5100,513,338,130669,121595
5102,514,337,130683,121598
5105,514,337,130694,121604
5107,514,337,130709,121607
5109,514,338,130721,121621
5112,513,338,130742,121631
5114,512,337,130759,121634
5117,510,337,130776,121649
5120,510,338,130801,121653
5123,508,338,130831,121662
5125,507,338,130855,121675
5127,506,338,130873,121698
5130,505,338,130905,121700
5132,505,337,130923,121698
5135,505,338,130948,121717
5137,505,338,130963,121725
5140,504,337,130994,121738
5142,504,338,131020,121749
5145,505,338,131049,121760
5147,505,338,131074,121767
5149,505,338,131099,121773
5152,506,338,131140,121789
5154,506,338,131160,121806
5157,506,338,131189,121814
5159,506,338,131210,121830
5163,506,337,131240,121840
5165,506,338,131267,121856
5167,506,338,131291,121857
5170,506,338,131320,121873
5172,506,338,131350,121883
5175,506,338,131385,121895
5177,506,337,131413,121907
5180,506,338,131439,121912
5182,506,338,131469,121934
5185,506,338,131489,121940
5187,507,338,131509,121950
5189,507,337,131547,121961
5192,507,338,131555,121975
5194,507,338,131589,121982
5197,508,338,131626,121996
5199,509,338,131651,122003
5202,509,338,131670,122012
5204,511,338,131696,122032
5207,513,338,131722,122035
5210,524,338,131754,122052
5212,533,338,131765,122061
5215,542,338,131800,122068
5217,554,338,131821,122077
5220,566,338,131837,122081
5222,574,338,131870,122097
5225,569,338,131888,122111
5227,553,338,131916,122114
5229,532,338,131934,122120
5232,509,338,131949,122128
5234,482,338,131972,122142
5237,472,338,131995,122152
5239,461,338,132020,122159
5242,451,338,132031,122165
5244,448,338,132065,122176
5246,447,337,132068,122162
5250,453,338,132090,122194
5252,458,338,132117,122196
5255,462,338,132140,122213
5257,468,338,132149,122219
5260,473,338,132167,122224
5262,483,338,132195,122233
5265,488,338,132205,122228
5267,493,338,132221,122235
5269,498,338,132231,122244
5272,505,338,132249,122250
5274,508,338,132265,122256
5277,510,338,132265,122262
5279,513,338,132300,122269
5282,514,338,132314,122269
5284,516,338,132331,122289
5286,517,338,132345,122288
5289,518,338,132355,122292
5292,518,338,132355,122300
5295,519,338,132381,122307
5297,519,338,132389,122301
5300,519,338,132389,122312
5302,520,338,132404,122314
5305,520,338,132417,122314
5307,520,338,132422,122321
5309,520,338,132431,122324
5312,520,338,132441,122327
5314,520,338,132441,122331
5317,520,338,132445,122333
5319,520,338,132457,122333
5322,520,338,132478,122346
5324,520,338,132488,122347
5326,520,338,132488,122357
5329,520,338,132498,122357
5331,520,338,132505,122357
5335,520,338,132513,122359
5337,520,338,132513,122362
5340,520,338,132511,122367
5342,520,338,132525,122367
5345,520,338,132540,122371
5347,520,338,132538,122368
5349,520,338,132538,122364
5352,520,338,132543,122375
5354,520,338,132560,122375
5357,519,338,132569,122388
5359,519,338,132569,122381
5362,519,338,132568,122387
5364,519,338,132583,122387
5366,519,338,132596,122388
5369,519,338,132585,122395
5371,519,338,132585,122401
5374,519,338,132601,122404
5377,519,338,132613,122404
5380,519,338,132626,122407
5382,519,338,132626,122410
5385,519,338,132622,122412
5387,520,338,132631,122412
5389,520,338,132656,122420
5392,519,338,132659,122419
5394,519,338,132660,122419
5397,520,338,132664,122428
5399,520,338,132664,122429
5402,520,338,132681,122440
5404,520,338,132696,122438
5406,520,338,132696,122444
5409,521,338,132706,122444
5411,521,338,132715,122450
5414,521,338,132715,122448
5416,522,338,132726,122446
5420,522,338,132728,122446
5422,523,338,132729,122454
5425,523,338,132739,122458
5427,523,338,132739,122451
5429,524,338,132740,122457
5432,524,338,132748,122457
5434,524,338,132748,122461
5437,524,338,132748,122444
5439,524,338,132733,122444
5442,524,338,132733,122430
5444,524,338,132684,122430
5446,525,338,132663,122430
5449,525,338,132663,122391
5451,526,338,132636,122367
5454,526,338,132523,122367
5456,526,338,132472,122345
5459,527,338,132472,122275
5462,527,338,132310,122275
5465,527,338,132310,122204
5467,527,338,132220,122159
5469,527,338,132118,122159
5472,527,338,131906,122114
5474,527,338,131783,122067
5477,526,338,131783,121965
5479,525,338,131668,121912
5482,525,338,131402,121912
5484,523,338,131275,121852
5486,522,338,131275,121752
5489,519,338,131145,121697
5491,518,338,131021,121697
5494,516,338,130905,121658
5496,513,338,130790,121613
5499,512,338,130688,121564
5501,507,338,130601,121525
5505,506,338,130411,121488
5507,503,338,130320,121463
5509,501,338,130320,121388
5512,498,338,130252,121364
5514,497,338,130196,121364
5517,496,338,130137,121339
5519,495,338,130081,121322
5522,494,338,130039,121314
5524,493,338,129996,121291
5526,493,338,129963,121276
5529,492,338,129920,121261
5531,491,338,129892,121253
5534,491,338,129849,121242
5536,491,338,129849,121225
5539,490,338,129831,121225
5541,490,338,129807,121225
5544,490,338,129803,121220
5547,490,338,129787,121221
5549,490,338,129775,121206
5552,490,338,129785,121210
5554,490,338,129765,121210
5557,490,338,129777,121212
5559,491,338,129781,121214
5562,491,338,129788,121220
5564,491,338,129802,121227
5566,492,338,129812,121235
5569,492,338,129819,121243
5571,492,338,129840,121253
5574,493,338,129854,121260
5576,493,338,129875,121267
5579,493,338,129890,121283
5581,494,338,129913,121294
5584,494,338,129937,121304
5586,495,338,129959,121308
5588,495,338,129986,121320
5592,496,338,130022,121330
5594,496,338,130055,121352
5597,496,338,130076,121361
5599,496,338,130108,121371
5602,497,338,130138,121386
5604,498,338,130156,121403
5606,498,338,130193,121413
5609,499,338,130239,121427
5611,498,338,130271,121446
5614,498,338,130315,121460
5616,498,338,130354,121477
5619,499,338,130381,121499
5621,499,338,130410,121505
5624,499,338,130450,121519
5626,500,338,130488,121539
5628,501,338,130524,121557
5632,501,338,130572,121570
5634,502,338,130604,121579
5637,502,338,130633,121600
5639,502,338,130670,121613
5642,502,338,130704,121625
5644,503,338,130736,121639
5646,503,338,130779,121656
5649,504,338,130814,121670
5651,504,338,130850,121686
5654,504,338,130875,121700
5656,504,338,130906,121723
5659,504,338,130936,121717
5661,504,338,130978,121738
5664,504,338,131004,121758
5666,504,338,131034,121763
5668,504,338,131067,121783
5671,505,338,131100,121796
5673,505,338,131139,121806
5677,505,338,131159,121817
5679,505,338,131187,121833
5682,505,338,131231,121847
5684,505,338,131262,121862
5686,505,338,131302,121874
5689,505,338,131339,121895
5691,505,338,131377,121910
5694,505,338,131401,121923
5696,506,338,131451,121939
5699,506,338,131479,121952
5701,506,338,131513,121960
5704,506,338,131554,121977
5706,505,338,131595,121995
5708,505,338,131619,122003
5711,505,338,131648,122019
5713,505,338,131663,122033
5716,505,338,131698,122044
5719,505,338,131727,122044
5722,505,338,131727,122056
5724,505,338,131762,122071
5726,506,338,131775,122071
5729,506,338,131790,122077
5731,506,338,131797,122078
5734,506,338,131808,122074
5736,506,338,131812,122079
5739,506,338,131809,122084
5741,506,338,131812,122082
5744,506,338,131812,122081
5746,506,338,131801,122079
5748,506,338,131780,122079
5751,506,338,131775,122072
5753,507,338,131754,122049
5756,507,338,131754,122040
5758,507,338,131701,122033
5762,507,338,131677,122033
5764,508,338,131640,122003
5766,507,338,131640,121989
5769,507,338,131588,121978
5771,507,338,131547,121978
5774,508,338,131515,121950
5776,508,338,131472,121926
5779,508,338,131472,121910
5781,507,338,131397,121893
5784,507,338,131357,121893
5786,507,338,131320,121857
5788,507,338,131320,121837
5791,507,338,131230,121829
5793,507,338,131201,121829
5796,507,338,131162,121809
5798,507,338,131125,121773
5801,507,339,131084,121765
5804,508,338,131084,121745
5806,508,338,131054,121736
5809,508,338,130988,121722
5811,508,338,130958,121722
5814,508,338,130932,121697
5816,508,338,130932,121695
5819,508,338,130911,121671
5821,509,338,130859,121671
5824,509,338,130851,121675
5826,509,338,130851,121662
5828,509,338,130827,121656
5831,509,339,130798,121651
5833,510,338,130798,121649
5836,510,338,130782,121649
5838,511,338,130776,121649
5841,511,338,130782,121652
5843,511,338,130782,121649
5846,512,338,130778,121657
5849,512,338,130784,121659
5851,513,338,130787,121659
5854,514,338,130787,121657
5856,514,338,130801,121657
5859,514,338,130808,121671
5861,513,338,130808,121680
5864,513,338,130819,121682
5866,513,338,130840,121682
5868,513,338,130857,121688
5871,514,338,130881,121708
5873,514,338,130889,121708
5876,514,338,130889,121720
5878,514,338,130902,121728
5881,513,338,130949,121728
5883,512,338,130949,121752
5885,510,338,130975,121763
5889,510,338,131013,121763
5891,509,338,131009,121770
5894,507,338,131009,121784
5896,506,338,131064,121802
5899,506,338,131118,121802
5901,505,338,131142,121811
5904,505,338,131142,121833
5906,505,338,131194,121833
5908,505,338,131229,121846
5911,505,338,131229,121867
5913,506,338,131253,121880
5916,506,338,131310,121880
5918,506,338,131333,121892
5921,506,338,131333,121917
5923,506,338,131364,121926
5925,506,338,131389,121926
5928,506,338,131456,121936
5931,507,338,131477,121959
5934,507,338,131477,121978
5936,507,338,131516,121990
5939,507,339,131566,121990
5941,507,338,131598,121988
5944,507,338,131598,122016
5946,507,338,131627,122033
5948,507,338,131655,122033
5951,507,338,131679,122047
5953,507,338,131699,122053
5956,507,338,131735,122063
5958,507,338,131762,122083
5961,508,338,131812,122079
5963,508,338,131842,122104
5965,509,338,131842,122116
5968,510,338,131871,122125
5970,511,338,131882,122125
5974,512,338,131924,122136
5976,515,338,131940,122152
5979,518,338,131970,122164
5981,533,338,131991,122170
5984,544,338,132047,122177
5986,555,338,132071,122191
5988,565,339,132071,122212
5991,571,338,132094,122212
5993,572,339,132108,122221
5996,557,338,132148,122231
5998,537,338,132151,122230
6001,520,338,132175,122242
6003,485,338,132198,122251
6005,472,338,132222,122263
6008,462,338,132237,122270
6010,455,338,132253,122269
6013,447,338,132286,122282
6016,447,338,132306,122294
6019,450,338,132312,122305
6021,453,338,132343,122314
6024,458,338,132358,122308
6026,470,338,132377,122321
6028,477,338,132398,122331
6031,482,338,132411,122343
6033,487,338,132419,122347
6036,492,338,132444,122348
6038,501,338,132454,122360
6041,504,338,132467,122367
6043,507,338,132490,122371
6045,510,338,132504,122382
6048,515,338,132511,122382
6050,516,338,132524,122390
6053,517,338,132537,122392
6055,517,338,132550,122400
6059,518,338,132568,122404
6061,518,338,132567,122405
6064,518,338,132591,122412
6066,519,338,132598,122418
6068,519,338,132606,122419
6071,519,338,132623,122421
6073,519,338,132629,122427
6076,519,338,132646,122432
6078,519,338,132649,122428
6081,519,339,132647,122436
6083,519,338,132669,122442
6085,519,338,132664,122450
6088,519,338,132684,122450
6090,519,338,132694,122449
6093,519,339,132694,122454
6095,519,338,132706,122457
6098,519,338,132708,122467
6100,519,338,132704,122464
6104,519,338,132715,122465
6106,519,338,132713,122464
6108,518,338,132719,122472
6111,518,338,132730,122468
6113,518,338,132733,122461
6116,518,338,132735,122470
6118,518,338,132738,122480
6121,518,338,132741,122478
6123,518,338,132748,122484
6125,518,338,132752,122485
6128,518,338,132755,122483
6130,518,338,132752,122485
6133,518,338,132767,122496
6135,518,338,132775,122493
6138,518,338,132776,122488
6140,518,338,132788,122501
6144,519,338,132779,122499
6146,519,338,132780,122506
6148,519,338,132803,122510
6151,519,338,132803,122506
6153,519,338,132812,122513
6156,519,338,132811,122516
6158,519,338,132818,122524
6161,519,338,132824,122519
6163,520,338,132833,122525
6165,520,338,132844,122523
6168,520,338,132850,122531
6170,520,338,132859,122531
6173,520,338,132864,122533
6175,520,338,132871,122526
6178,521,338,132872,122536
6180,520,338,132881,122540
6183,521,338,132887,122540
6185,521,338,132895,122542
6188,522,338,132900,122546
6191,522,339,132903,122542
6193,523,339,132896,122536
6196,523,338,132896,122547
6198,523,338,132903,122545
6201,523,338,132897,122545
6203,524,338,132903,122542
6205,524,339,132884,122529
6208,525,339,132867,122521
6210,525,339,132867,122517
6213,526,338,132832,122507
6215,526,338,132799,122492
6218,525,338,132799,122473
6220,525,339,132726,122445
6223,526,339,132666,122445
6225,526,339,132604,122391
6227,526,338,132527,122357
6231,526,339,132433,122312
6233,526,338,132433,122281
6236,526,339,132228,122228
6238,526,339,132114,122179
6241,526,339,132114,122131
6243,526,338,131877,122080
6245,525,339,131748,122080
6248,524,338,131619,121967
6250,523,338,131619,121913
6253,522,339,131341,121858
6255,522,338,131216,121858
6258,520,339,131100,121804
6260,517,339,130966,121707
6263,516,339,130847,121664
6265,512,339,130734,121619
6267,511,339,130629,121619
6270,507,339,130532,121531
6273,506,339,130532,121508
6276,504,339,130449,121478
6278,502,339,130294,121478
6281,500,339,130220,121443
6283,498,339,130170,121397
6285,497,338,130170,121371
6288,496,339,130070,121371
6290,495,339,130028,121360
6293,494,339,129988,121323
6295,492,338,129988,121311
6298,491,338,129950,121292
6300,491,339,129880,121292
6303,491,339,129866,121291
6305,490,338,129866,121264
6307,490,338,129841,121264
6310,490,339,129796,121264
6312,490,339,129789,121245
6316,490,339,129782,121255
6318,490,339,129782,121242
6321,490,339,129769,121251
6323,490,339,129767,121251
6325,490,339,129777,121245
6328,490,339,129776,121250
6330,491,339,129776,121250
6333,491,339,129776,121255
6335,491,339,129789,121260
6338,492,339,129805,121260
6340,492,339,129805,121272
6343,493,339,129820,121287
6345,493,339,129854,121287
6347,493,339,129862,121295
6350,493,339,129862,121307
6352,493,339,129889,121316
6355,493,339,129922,121316
6358,493,339,129949,121333
6361,494,339,129949,121352
6363,495,339,129987,121352
6365,495,338,130016,121366
6368,496,339,130016,121384
6370,496,339,130040,121392
6373,497,339,130088,121392
6375,497,339,130113,121401
6378,497,339,130113,121427
6380,498,338,130141,121440
6383,499,339,130167,121440
6385,499,339,130223,121448
6387,499,339,130246,121462
6390,499,339,130246,121480
6392,500,339,130285,121501
6395,500,339,130323,121501
6397,500,339,130356,121511
6401,501,339,130356,121531
6403,501,339,130381,121543
6405,502,339,130413,121543
6408,502,339,130459,121542
6410,502,339,130459,121561
6413,502,339,130486,121582
6415,503,339,130508,121582
6418,503,339,130552,121589
6420,503,339,130575,121606
6423,503,339,130575,121618
6425,504,339,130606,121624
6427,504,339,130617,121624
6430,504,339,130649,121638
6432,505,339,130661,121644
6435,505,339,130687,121659
6437,505,339,130714,121665
6440,505,339,130749,121676
6443,505,339,130779,121688
6445,505,339,130779,121703
6448,506,339,130806,121703
6450,506,339,130816,121708
6453,506,339,130845,121722
6455,507,339,130881,121724
6458,506,339,130887,121741
6460,506,339,130922,121751
6463,507,339,130941,121765
6465,507,339,130981,121772
6467,507,339,130996,121783
6470,507,339,131023,121792
6472,507,339,131052,121798
6475,507,339,131074,121815
6477,507,339,131106,121823
6480,507,339,131135,121832
6482,507,339,131150,121840
6484,506,339,131168,121854
6488,507,339,131183,121860
6490,507,339,131205,121867
6493,507,339,131208,121867
6495,507,339,131239,121872
6498,507,339,131227,121881
6500,507,339,131249,121889
6503,507,339,131253,121887
6505,507,339,131248,121886
6507,507,339,131248,121879
6510,507,339,131245,121888
6512,507,339,131232,121879
6515,507,339,131228,121870
6517,507,339,131213,121861
6520,507,339,131199,121866
6522,508,339,131174,121850
6524,508,339,131164,121840
6528,507,339,131144,121832
6530,507,339,131119,121817
6533,507,339,131094,121807
6535,508,339,131083,121791
6538,508,339,131055,121790
6540,508,339,131027,121769
6543,508,339,130988,121756
6545,508,339,130963,121747
6547,508,339,130932,121727
6550,508,339,130902,121721
6552,508,339,130865,121707
6555,508,339,130836,121691
6557,508,339,130806,121683
6560,508,339,130779,121667
6562,508,339,130742,121659
6564,508,339,130714,121647
6567,509,339,130687,121626
6569,509,339,130664,121619
6573,509,339,130631,121615
6575,509,339,130609,121592
6578,508,339,130588,121598
6580,508,339,130563,121585
6583,509,339,130541,121575
6585,509,339,130527,121570
6587,509,339,130509,121564
6590,509,339,130488,121554
6592,509,339,130471,121552
6595,509,339,130466,121553
6597,509,339,130453,121546
6600,509,339,130443,121546
6602,508,339,130446,121541
6604,508,339,130435,121519
6607,509,339,130432,121542
6609,509,339,130435,121542
6612,509,339,130425,121546
6615,510,339,130438,121548
6618,510,339,130437,121549
6620,511,339,130439,121557
6623,511,339,130446,121554
6625,511,339,130460,121563
6627,512,339,130461,121566
6630,512,339,130468,121583
6632,512,339,130485,121578
6635,512,339,130485,121579
6637,512,339,130509,121592
6640,512,339,130530,121592
6642,514,339,130546,121607
6644,514,339,130556,121595
6647,515,339,130570,121617
6649,515,339,130600,121627
6652,514,339,130612,121624
6654,514,339,130627,121636
6658,514,339,130650,121652
6660,514,339,130673,121652
6663,514,339,130673,121671
6665,515,339,130716,121681
6667,515,339,130741,121684
6670,514,339,130766,121699
6672,513,339,130781,121707
6675,513,339,130820,121720
6677,512,339,130842,121721
6680,511,339,130842,121731
6682,510,339,130879,121739
6684,509,339,130914,121739
6687,507,339,130939,121769
6689,507,339,130965,121774
6692,506,339,130990,121782
6694,506,339,130990,121801
6697,506,339,131037,121807
6700,506,339,131073,121821
6703,506,339,131073,121830
6705,506,339,131117,121842
6707,506,339,131146,121842
6710,506,339,131176,121857
6712,506,339,131176,121863
6715,507,339,131195,121876
6717,507,339,131249,121876
6720,507,339,131278,121890
6722,507,339,131298,121908
6724,507,339,131298,121920
6727,507,339,131346,121927
6729,507,339,131372,121927
6732,507,339,131396,121952
6734,507,339,131396,121962
6737,507,339,131419,121963
6739,507,339,131454,121963
6743,507,339,131491,121971
6745,508,339,131505,121992
6747,507,339,131505,122006
6750,508,339,131552,122008
6752,508,339,131570,122008
6755,508,339,131586,122020
6757,509,339,131586,122033
6760,509,339,131629,122049
6762,510,339,131641,122049
6764,511,339,131676,122047
6767,515,339,131690,122064
6769,518,339,131706,122064
6772,524,339,131729,122080
6774,542,339,131729,122085
6777,551,339,131765,122085
6779,565,339,131765,122103
6782,573,339,131791,122115
6785,574,339,131816,122115
6787,569,339,131848,122123
6790,538,339,131849,122131
6792,524,339,131875,122131
6795,490,339,131875,122140
6797,473,339,131892,122155
6800,464,339,131912,122155
6802,451,339,131912,122162
6804,445,339,131934,122171
6807,444,339,131961,122171
6809,444,339,131971,122171
6812,451,339,131971,122172
6814,455,339,131995,122172
6817,467,339,131995,122192
6819,475,339,132004,122195
6822,481,339,132031,122195
6824,489,339,132031,122210
6827,496,339,132043,122208
6830,501,339,132058,122215
6832,505,339,132058,122221
6835,509,339,132066,122232
6837,512,339,132078,122230
6840,514,339,132083,122230
6842,515,339,132102,122231
6844,517,339,132102,122240
6847,517,339,132111,122240
6849,518,339,132123,122246
6852,518,339,132123,122247
6854,518,339,132123,122251
6857,519,339,132134,122251
6859,519,339,132151,122253
6862,519,339,132151,122259
6864,519,339,132159,122259
6866,519,339,132159,122263
6870,519,339,132165,122265
6872,519,339,132164,122269
6875,519,339,132164,122269
6877,520,339,132176,122277
6880,520,339,132178,122277
6882,520,339,132184,122274
6884,520,339,132175,122274
6887,519,339,132188,122279
6889,519,339,132193,122280
6892,519,339,132199,122283
6894,519,339,132199,122283
6897,519,339,132204,122281
6899,519,339,132199,122281
6902,519,339,132208,122278
6904,519,339,132211,122290
6906,519,339,132206,122280
6909,519,339,132221,122279
6912,519,339,132221,122276
6915,519,339,132221,122283
6917,519,339,132235,122298
6920,519,339,132240,122296
6922,519,339,132250,122292
6924,519,339,132250,122290
6927,519,339,132254,122305
6929,519,339,132260,122299
6932,519,339,132266,122303
6934,519,339,132271,122297
6937,519,339,132276,122304
6939,519,339,132282,122310
6942,519,339,132294,122311
6944,519,339,132303,122312
6946,519,339,132305,122320
6949,519,339,132309,122326
6951,519,339,132335,122326
6955,519,339,132343,122332
6957,519,339,132342,122334
6960,519,339,132354,122340
6962,519,339,132357,122338
6964,519,339,132369,122347
6967,519,339,132380,122344
6969,519,339,132387,122355
6972,519,339,132390,122351
6974,520,339,132395,122355
6977,520,339,132397,122362
6979,521,339,132404,122359
6982,521,339,132412,122369
6984,521,339,132417,122361
6986,521,339,132421,122365
6989,522,339,132415,122362
6991,522,339,132419,122357
6994,522,339,132410,122356
6996,523,339,132402,122349
7000,523,339,132373,122344
7002,524,339,132374,122332
7004,524,339,132342,122329
7007,524,339,132309,122307
7009,525,339,132269,122278
7012,525,339,132211,122258
7014,526,339,132151,122226
7017,526,339,132078,122200
7019,526,339,131990,122158
7022,526,339,131908,122119
7024,527,339,131804,122065
7026,526,339,131685,122028
7029,526,339,131573,121975
7031,526,339,131442,121911
7034,526,339,131307,121858
7036,525,339,131187,121808
7040,525,339,131048,121754
7042,524,339,130919,121701
7044,523,339,130793,121656
7047,522,339,130670,121609
7049,520,339,130548,121557
7052,517,339,130454,121511
7054,515,339,130357,121478
7057,514,339,130260,121436
7059,512,339,130188,121409
7062,509,339,130103,121370
7064,506,339,130027,121348
7066,505,339,129969,121330
7069,503,339,129903,121305
7071,501,339,129853,121275
7074,500,339,129801,121255
7076,497,339,129752,121241
7079,496,339,129713,121217
7081,494,339,129658,121208
7084,494,339,129632,121195
7087,493,339,129604,121184
7089,492,339,129577,121176
7092,491,339,129555,121163
7094,490,339,129534,121153
7097,490,339,129514,121148
7099,490,339,129510,121149
7102,490,339,129488,121143
7104,490,339,129489,121144
7106,490,339,129476,121144
7109,490,339,129480,121134
7111,490,339,129475,121141
7114,490,339,129475,121142
7116,490,339,129486,121150
7119,490,339,129497,121150
7121,490,339,129509,121151
7123,491,339,129514,121163
7127,491,339,129525,121164
7129,492,339,129525,121181
7132,492,339,129553,121183
7134,492,339,129567,121195
7137,492,339,129567,121203
7139,492,339,129615,121212
7142,493,339,129624,121212
7144,493,339,129655,121235
7146,493,339,129675,121237
7149,494,339,129701,121247
7151,495,339,129701,121258
7154,495,339,129740,121265
7156,495,339,129760,121281
7159,496,339,129760,121286
7161,496,339,129809,121302
7163,497,339,129853,121302
7166,497,339,129879,121326
7169,498,339,129879,121334
7172,498,339,129928,121334
7174,498,339,129947,121334
7177,499,339,129992,121350
7179,499,339,130020,121378
7182,499,339,130043,121403
7184,499,339,130068,121399
7186,500,339,130095,121399
7189,500,339,130120,121423
7191,500,339,130120,121433
7194,501,339,130146,121440
7196,501,339,130187,121440
7199,501,339,130222,121451
7201,502,339,130241,121465
7203,502,339,130241,121478
7206,502,339,130283,121478
7208,502,339,130306,121484
7212,503,339,130329,121505
7214,503,339,130329,121515
7217,503,339,130349,121523
7219,504,339,130387,121523
7222,504,339,130415,121536
7224,504,339,130415,121547
7226,504,339,130429,121559
7229,504,339,130468,121559
7231,504,339,130485,121565
7234,504,339,130492,121571
7236,505,339,130492,121587
7239,505,339,130531,121589
7241,505,339,130561,121589
7243,505,339,130585,121604
7246,505,339,130597,121610
7248,506,339,130620,121610
7251,506,339,130620,121627
7254,506,339,130633,121648
7257,507,339,130671,121648
7259,506,339,130671,121661
7262,507,339,130707,121673
7264,507,339,130740,121673
7266,507,339,130766,121677
7269,507,339,130766,121697
7271,507,339,130790,121704
7274,507,339,130830,121704
7276,507,339,130843,121705
7279,507,339,130843,121724
7281,508,339,130862,121724
7283,507,339,130886,121729
7286,508,339,130886,121735
7288,508,339,130884,121739
7291,508,339,130896,121739
7293,508,339,130895,121741
7297,508,339,130895,121748
7299,508,339,130901,121741
7302,508,339,130898,121741
7304,509,339,130895,121745
7306,508,339,130878,121738
7309,508,339,130878,121723
7311,508,339,130867,121717
7314,508,339,130827,121717
7316,508,339,130805,121710
7319,508,339,130805,121685
7321,508,339,130788,121679
7323,508,339,130768,121679
7326,508,339,130716,121659
7328,508,339,130682,121648
7331,508,339,130682,121636
7333,508,339,130669,121626
7336,509,339,130606,121613
7339,509,339,130579,121611
7342,508,339,130579,121576
7344,508,339,130556,121568
7346,508,339,130515,121568
7349,508,339,130487,121551
7351,509,339,130455,121535
7354,508,339,130426,121524
7356,509,339,130409,121511
7359,509,339,130349,121500
7361,509,339,130318,121494
7363,509,339,130318,121467
7366,509,339,130301,121467
7368,509,339,130268,121454
7371,508,339,130259,121453
7373,509,339,130241,121441
7376,508,339,130218,121431
7378,509,339,130197,121424
7382,508,339,130179,121421
7384,509,339,130165,121414
7386,509,339,130151,121417
7389,509,339,130149,121415
7391,509,339,130136,121402
7394,509,339,130135,121407
7396,509,339,130132,121399
7399,509,339,130123,121400
7401,509,339,130112,121396
7403,510,339,130118,121404
7406,510,339,130109,121400
7408,510,339,130113,121409
7411,510,339,130110,121405
7413,511,339,130116,121413
7416,511,339,130117,121416
7418,511,339,130138,121414
7421,511,339,130147,121426
7424,511,339,130162,121424
7426,512,339,130165,121430
7429,513,339,130166,121435
7431,513,339,130180,121445
7434,514,339,130195,121441
7436,514,339,130206,121453
7439,513,339,130224,121466
7441,513,339,130232,121467
7443,513,339,130245,121481
7446,514,339,130268,121477
7448,515,339,130301,121493
7451,515,339,130313,121497
7453,515,339,130336,121508
7456,515,339,130352,121512
7458,514,339,130368,121516
7461,513,339,130391,121532
7463,512,339,130404,121538
7465,511,339,130423,121554
7469,510,339,130453,121555
7471,509,339,130478,121562
7474,508,339,130491,121572
7476,507,339,130513,121583
7479,506,339,130527,121591
7481,505,339,130554,121593
7483,505,339,130579,121604
7486,505,339,130608,121615
7488,505,339,130629,121629
7491,506,339,130650,121636
7493,506,339,130682,121655
7496,506,339,130702,121651
7498,506,339,130729,121660
7501,506,339,130741,121672
7503,506,339,130770,121683
7505,506,339,130794,121694
7508,506,339,130811,121700
7511,507,339,130843,121714
7514,507,339,130865,121722
7516,508,339,130884,121736
7519,508,339,130914,121736
7521,508,339,130934,121754
7523,508,339,130958,121757
7526,508,339,130972,121769
7528,508,339,130994,121776
7531,508,339,131016,121784
7533,508,339,131042,121795
7536,508,339,131058,121809
7538,508,339,131086,121813
7541,508,339,131113,121821
7543,510,339,131129,121828
7545,510,339,131146,121837
7548,511,339,131165,121846
7550,513,339,131187,121857
7554,517,339,131203,121861
7556,522,339,131226,121863
7559,529,339,131226,121872
7561,541,339,131252,121885
7563,550,339,131274,121885
7566,568,339,131292,121899
7568,574,339,131312,121898
7571,574,339,131331,121909
7573,561,339,131344,121922
7576,545,339,131356,121919
7578,507,339,131381,121937
7581,492,339,131381,121935
7583,475,339,131405,121942
7585,466,339,131414,121942
7588,450,339,131438,121950
7590,447,339,131442,121951
7593,446,339,131442,121955
7596,448,339,131460,121965
7599,452,339,131477,121965
7601,462,339,131497,121971
7603,467,339,131505,121980
7606,477,339,131516,121983
7608,482,339,131516,121984
7611,488,339,131533,121993
7613,496,339,131546,121998
7616,499,339,131546,121995
7618,504,339,131564,122009
7621,507,339,131563,122009
7623,513,339,131582,122007
7625,514,339,131582,122012
7628,516,339,131595,122010
7630,517,339,131608,122010
7633,517,339,131616,122021
7635,518,339,131613,122024
7639,518,339,131615,122022
7641,519,339,131615,122018
7643,519,339,131620,122027
7646,520,339,131616,122036
7648,520,339,131630,122036
7651,520,339,131635,122029
7653,520,339,131635,122035
7656,520,340,131644,122027
7658,520,339,131639,122027
7661,519,339,131652,122038
7663,520,339,131655,122034
7665,520,339,131655,122036
7668,520,339,131647,122043
7670,520,339,131647,122050
7673,520,339,131651,122036
7675,520,339,131655,122036
7678,520,339,131659,122044
7681,519,339,131659,122040
7683,519,339,131657,122043
7686,519,339,131657,122044
7688,519,339,131659,122044
7691,519,339,131659,122043
7693,519,339,131658,122043
7696,518,339,131664,122045
7698,518,339,131664,122045
7701,518,339,131659,122042
7703,518,339,131657,122042
7705,518,340,131668,122045
7708,518,340,131667,122040
7710,518,339,131673,122040
7713,518,339,131673,122044
7715,518,339,131670,122050
7718,519,339,131685,122050
7720,518,339,131685,122052
7723,518,339,131699,122054
7726,518,339,131692,122054
7728,518,339,131696,122047
7731,518,340,131664,122055
7733,518,340,131703,122055
7736,518,339,131703,122064
7738,518,339,131715,122056
7741,519,339,131725,122056
7743,519,339,131725,122065
7745,519,339,131729,122077
7748,520,340,131735,122077
7750,520,339,131737,122072
7753,520,340,131737,122081
7755,520,339,131744,122078
7758,521,340,131747,122078
7760,520,339,131763,122089
7762,520,339,131763,122085
7766,521,340,131765,122085
7768,521,340,131773,122089
7771,522,340,131773,122087
7773,522,340,131779,122093
7776,522,340,131781,122093
7778,522,340,131771,122091
7781,523,340,131771,122085
7783,523,340,131768,122081
7785,524,340,131761,122081
7788,524,340,131735,122073
7790,524,340,131735,122058
7793,524,340,131706,122052
7795,525,340,131696,122044
7798,526,340,131611,122023
7800,526,340,131559,122000
7802,526,340,131559,121941
7805,526,340,131499,121913
7808,526,340,131424,121913
7811,526,340,131342,121871
7813,527,340,131251,121830
7816,527,340,131153,121788
7818,527,340,131058,121744
7821,526,340,130826,121698
7823,526,340,130826,121595
7825,526,340,130715,121595
7828,525,340,130591,121554
7830,524,340,130480,121505
7833,523,340,130382,121463
7835,520,340,130282,121420
7838,519,340,130182,121379
7840,517,340,130087,121358
7842,515,340,130011,121316
7845,513,340,129940,121277
7847,509,340,129846,121248
7851,507,340,129779,121222
7853,506,340,129724,121190
7856,504,340,129666,121174
7858,501,340,129606,121146
7861,500,340,129540,121124
7863,498,340,129492,121100
7865,497,340,129448,121087
7868,495,340,129406,121077
7870,494,340,129366,121068
7873,493,340,129334,121058
7875,492,340,129315,121041
7878,492,340,129289,121034
7880,492,340,129265,121018
7882,491,340,129247,121026
7885,491,340,129240,121013
7887,490,340,129223,121010
7890,490,340,129207,121006
7892,490,340,129198,120999
7896,490,340,129193,121013
7898,490,340,129192,121003
7901,490,340,129189,121010
7903,491,340,129192,121007
7905,491,340,129200,121006
7908,491,340,129218,121016
7910,491,340,129224,121021
7913,491,340,129233,121025
7915,492,340,129247,121036
7918,492,340,129250,121046
7920,492,340,129268,121054
7922,493,340,129285,121060
7925,493,340,129306,121068
7927,493,340,129326,121085
7930,494,340,129358,121085
7932,494,340,129384,121095
7936,494,340,129410,121111
7938,495,340,129425,121117
7941,496,340,129446,121120
7943,497,340,129470,121134
7945,497,340,129497,121140
7948,497,340,129513,121157
7950,498,340,129538,121161
7953,498,340,129574,121171
7955,498,340,129595,121181
7958,498,340,129612,121194
7960,499,340,129643,121198
7962,499,340,129668,121215
7965,500,340,129698,121218
7967,500,340,129724,121241
7970,500,340,129754,121244
7972,500,340,129777,121257
7975,500,340,129794,121264
7977,501,340,129836,121271
7981,501,340,129863,121288
7983,502,340,129891,121299
7985,502,340,129914,121304
7988,502,340,129924,121312
7990,503,340,129953,121328
7993,503,340,129977,121340
7995,503,340,129996,121345
7998,503,340,130021,121343
8000,503,340,130030,121362
8002,504,340,130061,121368
8005,504,340,130083,121383
8007,504,340,130101,121386
8010,504,340,130122,121396
8012,504,340,130140,121398
8015,504,340,130159,121414
8017,504,340,130173,121412
8020,504,340,130198,121416
8023,505,340,130220,121429
8025,505,340,130239,121432
8028,505,340,130257,121448
8030,506,340,130273,121455
8033,506,340,130290,121466
8035,506,340,130311,121473
8038,506,340,130311,121482
8040,506,340,130358,121489
8042,506,340,130373,121489
8045,506,340,130403,121509
8047,506,340,130430,121515
8050,506,340,130452,121525
8052,506,340,130473,121529
8055,507,340,130492,121539
8057,507,340,130523,121544
8060,506,340,130523,121555
8062,506,340,130556,121570
8065,507,340,130570,121570
8068,507,340,130589,121582
8070,507,340,130603,121583
8073,507,340,130603,121586
8075,506,340,130624,121589
8078,507,340,130616,121589
8080,507,340,130632,121598
8082,507,341,130632,121599
8085,507,340,130627,121596
8087,507,340,130622,121596
8090,507,340,130623,121588
8092,507,340,130606,121588
8095,507,340,130606,121586
8097,507,340,130577,121586
8100,507,340,130565,121574
8102,507,340,130547,121561
8104,508,340,130547,121551
8108,508,340,130498,121542
8110,508,340,130468,121542
8113,507,340,130452,121525
8115,507,340,130423,121496
8118,507,341,130396,121495
8120,508,340,130396,121481
8122,507,340,130365,121469
8125,508,340,130305,121450
8127,508,341,130269,121450
8130,508,340,130241,121418
8132,508,340,130241,121413
8135,507,340,130223,121389
8137,507,341,130151,121389
8140,507,341,130122,121382
8142,507,340,130122,121359
8144,508,340,130101,121351
8147,508,341,130041,121333
8150,508,340,130041,121326
8153,508,340,129987,121312
8155,508,341,129963,121312
8158,508,340,129963,121291
8160,508,341,129927,121291
8162,508,341,129903,121292
8165,508,341,129903,121276
8167,508,340,129894,121261
8170,509,341,129849,121261
8172,509,341,129850,121255
8175,509,340,129833,121250
8177,509,341,129833,121247
8180,509,341,129826,121248
8182,510,341,129816,121248
8184,510,341,129809,121237
8187,510,341,129809,121235
8189,511,341,129811,121236
8193,511,341,129798,121236
8195,512,341,129811,121239
8198,512,341,129811,121247
8200,512,341,129820,121247
8202,512,341,129829,121252
8205,512,341,129829,121261
8207,512,341,129830,121261
8210,513,341,129851,121265
8212,514,341,129849,121267
8215,514,341,129849,121279
8217,513,341,129868,121284
8220,513,341,129886,121284
8222,513,341,129886,121301
8224,513,341,129907,121308
8227,514,341,129931,121308
8229,515,341,129931,121308
8232,515,341,129947,121321
8235,515,341,129960,121328
8238,515,341,129977,121328
8240,514,341,130017,121329
8242,512,341,130017,121346
8245,512,341,130050,121346
8247,511,341,130050,121360
8250,510,341,130067,121371
8252,509,341,130095,121382
8255,508,341,130111,121382
8257,508,341,130133,121388
8260,507,341,130147,121392
8262,507,341,130176,121403
8264,507,341,130202,121413
8267,506,341,130245,121424
8269,506,341,130245,121433
8272,506,341,130259,121454
8274,506,341,130286,121454
8278,506,341,130313,121461
8280,506,341,130328,121470
8282,506,341,130349,121476
8285,506,341,130381,121488
8287,507,341,130400,121496
8290,507,341,130451,121499
8292,507,341,130451,121524
8295,507,341,130470,121524
8297,508,341,130497,121537
8300,508,341,130525,121551
8302,508,341,130542,121553
8304,507,341,130567,121562
8307,507,341,130595,121571
8309,508,341,130609,121578
8312,507,341,130629,121588
8314,507,341,130652,121589
8317,507,341,130679,121607
8320,507,341,130706,121608
8322,507,341,130718,121626
8325,508,341,130734,121630
8327,509,341,130758,121643
8330,509,341,130788,121644
8332,510,341,130801,121655
8335,513,341,130821,121658
8337,520,341,130835,121679
8340,526,341,130848,121679
8342,536,341,130871,121685
8344,547,341,130892,121694
8347,566,341,130912,121700
8349,573,341,130927,121703
8352,574,341,130943,121721
8354,567,341,130951,121718
8357,549,341,130977,121726
8359,511,341,130981,121738
8361,495,341,130998,121737
8365,479,341,131016,121738
8367,468,341,131035,121747
8370,457,341,131050,121754
8372,447,341,131060,121763
8375,446,341,131075,121768
8377,447,341,131090,121774
8380,450,341,131101,121777
8382,461,341,131103,121779
8384,467,341,131117,121790
8387,472,341,131128,121779
8389,479,341,131145,121793
8392,488,341,131145,121797
8394,492,341,131158,121795
8397,498,341,131164,121801
8399,505,341,131174,121809
8401,508,341,131187,121817
8404,511,341,131198,121817
8407,512,341,131204,121824
8410,516,341,131203,121826
8412,516,341,131213,121836
8415,517,341,131211,121822
8417,517,341,131218,121832
8420,517,341,131233,121833
8422,518,341,131233,121842
8424,518,341,131249,121850
8427,519,341,131244,121836
8429,519,341,131258,121847
8432,519,341,131253,121855
8434,519,341,131253,121848
8437,519,341,131264,121851
8439,519,341,131254,121855
8441,519,341,131264,121846
8444,519,341,131264,121856
8446,519,341,131269,121854
8450,519,341,131265,121861
8452,519,341,131278,121857
8455,519,341,131279,121856
8457,519,341,131281,121859
8460,519,341,131275,121857
8462,519,341,131281,121860
8464,519,341,131274,121857
8467,519,341,131278,121864
8469,519,341,131288,121858
8472,519,341,131278,121863
8474,519,341,131281,121856
8477,519,341,131281,121863
8479,519,341,131283,121865
8481,519,341,131279,121865
8484,519,341,131291,121866
8486,519,341,131286,121862
8489,519,341,131289,121864
8492,518,341,131286,121862
8495,519,341,131291,121863
8497,519,341,131302,121868
8500,519,341,131302,121867
8502,519,341,131295,121865
8504,519,341,131298,121865
8507,519,341,131308,121870
8509,519,341,131308,121867
8512,519,341,131308,121870
8514,519,341,131318,121875
8517,519,341,131321,121875
8519,519,341,131332,121882
8521,519,341,131335,121878
8524,520,341,131343,121884
8526,520,341,131343,121888
8529,520,341,131355,121887
8531,520,341,131352,121889
8535,520,341,131352,121887
8537,520,341,131359,121894
8540,521,341,131364,121894
8542,521,341,131382,121906
8544,521,341,131382,121896
8547,521,341,131375,121896
8549,522,341,131382,121896
8552,522,341,131400,121903
8554,523,341,131391,121898
8557,523,341,131393,121910
8559,523,341,131393,121901
8561,524,341,131395,121898
8564,524,341,131381,121896
8566,525,341,131375,121896
8569,525,341,131358,121885
8571,525,341,131358,121882
8574,525,341,131360,121870
8577,526,341,131300,121870
8580,526,341,131270,121850
8582,527,341,131226,121806
8584,527,341,131226,121784
8587,527,341,131105,121759
8589,527,341,131105,121718
8592,527,341,130950,121681
8594,527,341,130856,121681
8597,527,341,130761,121632
8599,527,341,130761,121543
8601,527,341,130660,121507
8604,526,341,130442,121457
8606,526,341,130324,121457
8609,525,341,130324,121365
8611,525,341,130125,121365
8614,523,341,130034,121332
8616,520,341,130034,121252
8620,518,341,129946,121212
8622,516,341,129773,121212
8624,515,341,129696,121181
8627,512,341,129622,121120
8629,510,341,129548,121120
8632,507,341,129548,121061
8634,505,341,129480,121035
8637,504,341,129344,121035
8639,501,341,129344,120985
8641,500,341,129303,120968
8644,499,341,129202,120968
8646,497,341,129160,120958
8649,495,341,129127,120920
8651,495,341,129090,120920
8654,493,341,129090,120889
8656,492,341,129060,120888
8659,491,341,128997,120888
8662,491,341,128997,120874
8664,490,341,128985,120866
8667,490,341,128952,120866
8669,490,341,128943,120867
8672,490,341,128943,120859
8674,490,341,128932,120858
8677,490,341,128939,120858
8679,490,341,128943,120864
8681,490,341,128943,120864
8684,490,341,128936,120864
8686,490,341,128947,120874
8689,491,341,128947,120880
8691,491,341,128958,120889
8694,492,341,128982,120889
8696,492,340,129004,120897
8699,492,341,129004,120910
8701,492,340,129013,120913
8704,493,340,129026,120913
8707,493,341,129070,120922
8709,493,341,129085,120937
8712,494,340,129085,120949
8714,494,341,129113,120949
8717,495,341,129146,120953
8719,495,340,129172,120972
8721,496,340,129172,120984
8724,496,340,129199,120993
8726,496,340,129219,120993
8729,496,340,129252,121009
8731,497,340,129273,121014
8734,497,340,129298,121019
8736,498,340,129327,121028
8739,499,340,129380,121034
8741,499,340,129380,121065
8743,499,340,129412,121065
8747,499,340,129425,121068
8749,500,340,129460,121087
8752,500,340,129490,121089
8754,501,340,129524,121095
8757,501,340,129533,121106
8759,501,340,129561,121126
8761,501,340,129587,121128
8764,501,340,129611,121137
8766,502,340,129623,121149
8769,502,340,129656,121160
8771,503,340,129681,121158
8774,503,340,129709,121178
8776,503,340,129732,121183
8779,503,340,129749,121196
8781,504,340,129766,121202
8783,504,340,129787,121211
8786,504,340,129799,121210
8788,504,340,129819,121225
8792,504,340,129825,121231
8794,504,340,129845,121234
8797,504,340,129877,121241
8799,504,340,129893,121246
8801,504,340,129912,121251
8804,505,340,129923,121271
8806,505,340,129955,121272
8809,505,340,129956,121283
8811,505,340,129974,121286
8814,505,340,129987,121295
8816,506,340,130012,121300
8819,506,340,130027,121315
8821,506,340,130049,121316
8823,506,340,130074,121329
8826,506,340,130099,121332
8828,506,340,130117,121342
8832,506,340,130140,121347
8834,506,340,130154,121362
8837,506,340,130181,121365
8839,506,340,130198,121380
8841,506,340,130204,121384
8844,507,340,130223,121392
8846,507,340,130240,121399
8849,507,340,130258,121401
8851,507,340,130283,121409
8854,507,340,130290,121410
8856,507,340,130302,121415
8859,506,340,130302,121420
8861,506,340,130304,121427
8863,506,340,130297,121418
8866,506,340,130293,121421
8868,507,340,130286,121424
8871,507,340,130268,121417
8873,507,340,130269,121411
8877,507,340,130271,121402
8879,507,340,130251,121406
8881,508,340,130235,121392
8884,508,340,130211,121387
8886,508,340,130198,121385
8889,508,340,130172,121372
8891,508,340,130141,121352
8894,508,340,130122,121340
8896,508,340,130095,121334
8899,508,340,130084,121322
8901,508,340,130050,121311
8903,508,340,130024,121297
8906,508,339,129989,121282
8908,508,340,129962,121265
8911,508,340,129931,121263
8913,508,339,129900,121246
8916,508,339,129879,121224
8919,508,340,129847,121219
8921,509,339,129823,121205
8924,509,339,129789,121191
8926,509,339,129759,121179
8929,509,339,129736,121149
8931,509,339,129711,121156
8934,509,339,129687,121148
8936,509,339,129658,121147
8939,509,340,129636,121126
8941,509,339,129627,121119
8943,509,339,129603,121117
8946,509,339,129589,121107
8948,509,339,129573,121103
8951,509,339,129552,121092
8953,509,339,129546,121084
8956,509,339,129546,121082
8958,509,339,129528,121086
8961,509,339,129530,121086
8964,509,339,129527,121080
8966,509,339,129520,121076
8969,510,339,129521,121071
8971,510,339,129510,121079
8974,510,339,129512,121078
8976,511,339,129516,121075
8979,511,339,129516,121082
8981,511,339,129521,121085
8983,512,339,129528,121085
8986,512,339,129544,121096
8988,512,339,129544,121095
8991,512,339,129544,121103
8993,513,339,129564,121114
8996,513,339,129576,121114
8998,514,339,129574,121122
9000,514,339,129574,121127
9004,513,339,129606,121128
9006,513,339,129620,121128
9009,513,339,129640,121148
9011,514,339,129652,121145
9014,514,339,129652,121151
9016,515,339,129680,121152
9019,515,339,129690,121152
9021,514,339,129708,121169
9023,514,339,129708,121177
9026,513,339,129749,121186
9028,512,339,129777,121186
9031,512,339,129799,121196
9033,510,339,129813,121205
9036,509,339,129831,121221
9038,508,339,129831,121221
9040,507,339,129844,121226
9043,506,339,129885,121241
9046,506,339,129907,121241
9049,506,339,129930,121253
9051,505,339,129930,121272
9054,505,339,129954,121268
9056,505,339,129992,121268
9059,505,339,130013,121282
9061,505,339,130013,121296
9063,506,339,130038,121313
9066,506,339,130083,121321
9068,505,339,130083,121330
9071,505,339,130133,121340
9073,505,339,130145,121340
9076,506,338,130173,121349
9078,506,338,130173,121360
9080,506,338,130197,121368
9083,506,338,130235,121368
9085,506,338,130262,121376
9089,506,339,130262,121390
9091,506,339,130295,121390
9094,507,339,130317,121409
9096,507,339,130317,121417
9099,507,338,130340,121436
9101,507,339,130377,121436
9103,507,338,130396,121442
9106,508,338,130396,121449
9108,509,338,130422,121457
9111,510,338,130448,121457
9113,511,338,130470,121472
9116,512,338,130470,121476
9118,514,338,130494,121476
9120,517,338,130507,121493
9123,529,338,130507,121500
9125,542,338,130530,121507
9128,551,338,130557,121507
9131,561,338,130572,121516
9134,573,338,130572,121525
9136,571,338,130595,121521
9139,561,338,130609,121521
9141,533,338,130609,121544
9143,510,338,130632,121543
9146,496,338,130651,121543
9148,471,338,130651,121553
9151,461,338,130657,121560
9153,451,338,130672,121563
9156,447,338,130687,121563
9158,445,338,130712,121565
9160,448,338,130712,121573
9163,451,338,130716,121573
9165,456,338,130716,121580
9168,468,338,130730,121585
9170,476,338,130742,121593
9174,481,338,130750,121593
9176,485,338,130749,121602
9179,491,338,130760,121595
9181,496,338,130773,121603
9183,504,338,130783,121608
9186,506,338,130792,121606
9188,509,338,130792,121612
9191,513,338,130791,121609
9193,515,338,130792,121609
9196,516,338,130799,121618
9198,516,338,130801,121623
9200,517,338,130804,121615
9203,517,338,130821,121616
9205,518,338,130816,121617
9208,518,338,130824,121620
9210,518,338,130824,121621
9213,518,338,130825,121621
9216,519,338,130830,121629
9219,519,338,130839,121631
9221,519,338,130838,121635
9223,519,338,130834,121637
9226,519,338,130845,121622
9228,519,338,130838,121632
9231,519,338,130843,121631
9233,519,338,130843,121629
9236,519,338,130843,121638
9238,519,338,130845,121642
9240,519,338,130850,121637
9243,519,338,130836,121636
9245,519,338,130845,121638
9248,519,338,130846,121630
9250,519,338,130846,121633
9253,519,338,130842,121630
9255,518,338,130840,121630
9259,518,338,130836,121634
9261,518,338,130839,121634
9263,519,338,130842,121634
9266,519,338,130844,121634
9268,519,338,130844,121642
9271,519,338,130848,121647
9273,519,338,130848,121639
9276,519,338,130852,121644
9278,518,338,130849,121642
9280,518,338,130866,121649
9283,519,337,130856,121643
9285,518,338,130861,121645
9288,518,338,130865,121653
9290,519,338,130875,121646
9293,519,337,130868,121642
9295,519,338,130870,121647
9298,519,338,130883,121652
9300,519,337,130881,121657
9303,519,337,130877,121657
9306,519,337,130888,121654
9308,519,337,130900,121658
9311,520,338,130904,121660
9313,520,337,130907,121664
9316,520,337,130907,121667
9318,520,337,130918,121663
9320,520,337,130925,121676
9323,521,337,130925,121671
9325,521,337,130933,121683
9328,522,337,130927,121685
9330,522,337,130939,121683
9333,522,337,130944,121677
9335,522,337,130953,121681
9338,522,337,130945,121680
9340,523,337,130950,121679
9342,523,337,130948,121679
9346,524,337,130947,121683
9348,524,337,130944,121677
9351,525,337,130935,121680
9353,525,337,130918,121664
9356,525,337,130912,121666
9358,525,337,130907,121654
9360,526,337,130879,121632
9363,526,337,130844,121619
9365,526,337,130801,121609
9368,526,337,130766,121578
9370,526,337,130707,121552
9373,527,337,130640,121519
9375,527,337,130570,121491
9378,527,337,130482,121439
9380,527,337,130393,121403
9382,526,337,130296,121363
9385,526,337,130198,121327
9388,526,337,130109,121282
9391,525,338,130012,121242
9393,524,338,129924,121201
9396,523,338,129826,121163
9398,522,337,129745,121134
9400,521,338,129648,121090
9403,518,337,129560,121057
9405,516,337,129483,121021
9408,515,337,129404,120988
9410,512,337,129330,120959
9413,511,337,129260,120923
9415,507,337,129203,120905
9418,505,337,129203,120874
9420,502,338,129074,120855
9422,501,337,129017,120855
9425,498,338,128962,120814
9427,497,337,128921,120789
9431,495,337,128921,120776
9433,494,337,128840,120760
9436,494,337,128814,120760
9438,492,337,128780,120743
9440,491,337,128751,120729
9443,491,337,128731,120723
9445,490,338,128731,120719
9448,490,337,128687,120709
9450,490,337,128682,120707
9453,489,337,128682,120706
9455,489,337,128671,120703
9458,489,338,128668,120703
9460,489,338,128669,120708
9462,489,337,128665,120712
9465,489,337,128674,120708
9467,489,337,128674,120715
9470,489,337,128689,120725
9473,490,337,128704,120725
9476,490,337,128716,120733
9478,491,337,128735,120732
9480,491,337,128735,120750
9483,491,337,128751,120752
9485,492,337,128769,120752
9488,493,337,128795,120772
9490,493,337,128795,120781
9493,494,337,128814,120789
9495,495,337,128849,120789
9498,494,337,128875,120794
9500,495,337,128898,120808
9502,495,337,128898,120821
9505,495,337,128941,120832
9507,496,338,128978,120832
9510,496,337,129000,120848
9512,496,337,129000,120860
9516,497,337,129027,120871
9518,497,337,129069,120871
9520,497,337,129093,120872
9523,498,337,129119,120893
9525,498,337,129119,120903
9528,498,337,129178,120915
9530,499,337,129199,120915
9533,499,337,129216,120927
9535,499,337,129216,120942
9538,500,337,129237,120946
9540,500,337,129287,120946
9542,501,337,129315,120955
9545,501,337,129344,120972
9547,502,337,129353,120972
9550,502,337,129353,120984
9552,502,337,129374,120994
9555,502,337,129399,120994
9558,503,337,129399,121009
9560,503,337,129429,121013
9563,504,337,129453,121013
9565,503,337,129443,121013
9568,504,337,129491,121033
9570,504,337,129500,121033
9573,505,337,129500,121040
9575,505,337,129507,121046
9578,505,337,129538,121046
9580,505,337,129538,121061
9582,505,337,129558,121066
9585,505,337,129573,121066
9587,505,337,129589,121070
9590,505,337,129589,121079
9592,506,337,129603,121080
9595,506,337,129622,121080
9597,506,337,129658,121093
9600,506,337,129658,121099
9603,507,337,129670,121099
9605,507,337,129692,121119
9608,507,337,129692,121131
9610,507,337,129716,121139
9613,507,337,129745,121139
9615,506,337,129765,121144
9618,506,337,129765,121157
9620,507,337,129788,121152
9622,507,337,129794,121152
9625,507,337,129829,121172
9627,507,337,129836,121176
9630,507,337,129836,121185
9632,507,337,129862,121179
9635,507,337,129866,121179
9637,507,337,129868,121185
9639,507,337,129868,121197
9643,506,337,129879,121189
9645,507,337,129867,121189
9648,506,337,129866,121190
9650,506,337,129858,121193
9653,506,337,129854,121185
9655,506,337,129847,121184
9658,507,337,129822,121181
9660,507,337,129822,121169
9662,507,337,129816,121169
9665,506,337,129801,121162
9667,507,337,129787,121149
9670,507,337,129772,121144
9672,507,337,129760,121137
9675,507,337,129724,121125
9677,507,337,129704,121113
9679,507,337,129677,121101
9682,507,337,129660,121088
9684,508,337,129628,121071
9688,508,337,129606,121065
9690,508,337,129580,121045
9693,508,337,129550,121038
9695,507,337,129534,121019
9698,507,337,129508,121016
9700,506,337,129478,121006
9702,507,337,129444,120995
9705,507,337,129422,120981
9707,508,337,129399,120977
9710,508,337,129373,120964
9712,508,337,129348,120952
9715,508,337,129329,120944
9717,508,337,129306,120937
9719,508,337,129302,120926
9722,508,337,129287,120920
9724,508,337,129270,120915
9728,508,337,129237,120911
9730,508,337,129230,120905
9733,509,337,129224,120900
9735,509,337,129218,120902
9738,509,337,129204,120904
9740,509,337,129195,120892
9742,509,337,129192,120888
9745,510,337,129188,120890
9747,510,337,129185,120891
9750,510,337,129192,120890
9752,510,337,129187,120890
9755,511,337,129186,120895
9757,511,337,129193,120897
9759,511,337,129192,120902
9762,512,337,129200,120901
9764,512,337,129200,120907
9767,512,337,129213,120906
9769,513,337,129226,120911
9773,514,337,129237,120918
9775,515,337,129250,120921
9778,514,337,129243,120930
9780,513,337,129258,120935
9782,512,337,129282,120936
9785,513,337,129281,120941
9787,514,337,129298,120942
9790,514,337,129308,120955
9792,515,337,129321,120957
9795,515,337,129346,120969
9797,515,337,129356,120974
9799,514,337,129373,120972
9802,513,337,129384,120990
9804,512,337,129396,120999
9807,512,337,129418,121005
9809,510,337,129439,121010
9812,509,337,129452,121012
9815,507,337,129472,121021
9818,507,337,129489,121019
9820,506,337,129504,121033
9822,506,337,129535,121039
9825,506,337,129540,121044
9827,506,337,129558,121046
9830,506,337,129576,121062
9832,507,337,129590,121072
9835,507,337,129624,121072
9837,507,337,129636,121089
9839,507,337,129672,121095
9842,507,337,129680,121102
9844,507,337,129686,121112
9847,508,337,129714,121091
9849,508,337,129726,121118
9852,508,337,129753,121128
9854,508,337,129771,121140
9858,508,337,129787,121147
9860,507,337,129815,121152
9862,506,337,129831,121152
9865,506,337,129848,121160
9867,506,337,129860,121167
9870,507,337,129878,121176
9872,507,337,129899,121188
9875,506,337,129899,121203
9877,507,337,129929,121198
9879,507,337,129946,121198
9882,508,337,129959,121218
9884,510,337,129976,121214
9887,510,337,129991,121228
9889,511,337,130002,121232
9892,512,337,130013,121237
9894,516,337,130030,121241
9897,520,337,130030,121242
9900,530,337,130052,121248
9902,539,337,130070,121248
9905,560,338,130092,121267
9907,569,337,130095,121270
9910,574,337,130095,121271
9912,572,338,130110,121277
9915,560,338,130127,121277
9917,521,337,130145,121286
9919,504,338,130145,121294
9922,484,337,130150,121293
9924,474,337,130172,121293
9927,464,338,130177,121302
9929,451,337,130184,121302
9932,448,337,130184,121309
9934,448,337,130204,121311
9937,450,338,130215,121311
9939,458,337,130219,121322
9942,462,337,130219,121324
9945,468,337,130228,121327
9947,473,338,130231,121327
9950,478,337,130244,121330
9952,486,338,130247,121330
9955,490,338,130244,121343
9957,498,338,130244,121337
9959,502,338,130248,121339
9962,506,338,130263,121336
9964,509,337,130261,121336
9967,513,338,130269,121343
9969,515,338,130269,121346
9972,516,337,130274,121340
9974,517,338,130268,121340
9977,517,338,130273,121345
9979,518,338,130273,121346
9981,518,338,130275,121350
9985,519,338,130272,121344
9987,519,337,130272,121340
9990,519,338,130266,121343
9992,519,338,130266,121343
9995,519,338,130272,121343
9997,519,338,130272,121347
9999,519,338,130274,121347
10002,520,338,130274,121343
10004,520,338,130272,121343
10007,520,338,130272,121345
10009,520,338,130267,121345
10012,520,338,130266,121349
10014,520,338,130266,121341
10017,520,338,130270,121338
10019,520,338,130266,121338
10021,520,338,130258,121339
10024,520,338,130258,121333
10027,520,338,130262,121344
10030,520,338,130262,121344
10032,519,338,130265,121345
10035,519,338,130265,121340
10037,519,338,130261,121340
10039,519,338,130260,121343
10042,519,338,130260,121337
10044,519,338,130261,121338
10047,520,338,130267,121338
10049,519,338,130261,121340
10052,520,338,130261,121337
10054,519,338,130260,121337
10057,520,338,130253,121337
10059,519,338,130253,121333
10061,519,338,130267,121336
10064,519,338,130267,121346
10066,519,338,130267,121342
10070,519,338,130271,121345
10072,519,338,130264,121345
10075,519,338,130267,121345
10077,519,338,130274,121342
10079,519,338,130274,121342
10082,519,338,130273,121342
10084,519,338,130273,121339
10087,519,338,130267,121349
10089,520,338,130278,121341
10092,520,338,130279,121341
10094,520,338,130278,121351
10097,520,338,130278,121351
10099,520,338,130285,121351
10101,520,338,130285,121357
10104,521,338,130292,121351
10106,521,338,130288,121350
10109,522,338,130286,121356
10112,522,338,130290,121351
10115,522,338,130293,121351
10117,522,338,130297,121352
10119,522,338,130292,121354
10122,522,338,130288,121348
10124,524,338,130293,121343
10127,524,338,130275,121347
10129,524,338,130275,121338
10132,524,338,130269,121338
10134,525,338,130249,121323
10137,526,338,130253,121315
10139,526,338,130209,121307
10141,526,338,130201,121294
10144,526,338,130169,121278
10146,527,339,130133,121257
10149,527,338,130085,121235
10151,527,338,130035,121208
10155,527,338,129969,121187
10157,527,338,129902,121145
10159,527,338,129835,121112
10162,526,338,129768,121080
10164,526,338,129691,121061
10167,525,339,129611,121022
10169,524,339,129548,120979
10172,523,339,129469,120954
10174,520,339,129391,120911
10177,518,339,129313,120881
10179,516,338,129239,120853
10181,515,339,129150,120823
10184,511,339,129077,120784
10186,509,339,129024,120758
10189,508,339,128946,120734
10191,507,339,128890,120709
10194,505,339,128838,120684
10196,502,339,128771,120658
10199,500,339,128712,120636
10202,498,338,128658,120627
10204,497,339,128615,120604
10207,495,339,128567,120584
10209,494,339,128536,120574
10212,492,339,128495,120564
10214,492,339,128465,120546
10217,491,339,128450,120538
10219,490,338,128416,120528
10221,490,339,128395,120527
10224,490,339,128385,120520
10226,489,339,128383,120518
10229,489,339,128366,120510
10231,490,339,128358,120518
10234,489,339,128364,120515
10236,489,339,128355,120511
10238,489,339,128353,120515
10242,489,339,128358,120518
10244,489,339,128364,120529
10247,490,339,128368,120519
10249,491,339,128380,120534
10252,491,339,128394,120530
10254,491,339,128408,120544
10257,492,339,128426,120550
10259,492,339,128444,120557
10261,493,339,128454,120575
10264,493,339,128474,120569
10266,493,339,128492,120574
10269,493,339,128506,120588
10271,494,339,128528,120598
10274,494,339,128557,120609
10276,495,339,128573,120617
10278,495,339,128591,120621
10281,496,339,128616,120630
10284,497,339,128644,120646
10287,497,339,128658,120644
10289,498,339,128684,120650
10292,498,339,128708,120671
10294,499,339,128733,120669
10297,499,339,128764,120683
10299,499,339,128789,120690
10301,499,339,128807,120705
10304,500,339,128834,120716
10306,500,339,128860,120721
10309,500,339,128883,120732
10311,501,339,128901,120744
10314,501,339,128922,120747
10316,502,339,128940,120750
10318,502,339,128963,120761
10321,502,339,128985,120764
10323,502,339,128994,120774
10327,502,339,129026,120783
10329,502,339,129042,120782
10332,502,339,129057,120796
10334,503,339,129073,120802
10337,503,339,129084,120807
10339,503,339,129110,120811
10341,503,339,129121,120815
10344,503,339,129141,120830
10346,504,339,129144,120825
10349,504,339,129144,120831
10351,504,339,129174,120836
10354,505,339,129188,120836
10356,505,339,129210,120851
10358,505,339,129216,120852
10361,505,339,129226,120858
10363,505,339,129226,120867
10366,505,339,129245,120866
10369,506,339,129263,120870
10372,506,339,129263,120881
10374,506,339,129304,120885
10377,506,339,129318,120885
10379,506,339,129344,120901
10381,506,339,129354,120910
10384,506,339,129382,120924
10386,506,339,129382,120924
10389,506,339,129401,120931
10391,507,339,129428,120931
10394,507,340,129452,120951
10396,507,339,129462,120952
10398,507,339,129462,120954
10401,507,339,129490,120956
10403,508,339,129493,120956
10406,508,339,129497,120962
10408,507,339,129497,120972
10412,507,339,129511,120967
10414,508,339,129511,120967
10417,508,340,129521,120968
10419,508,340,129511,120970
10421,508,340,129511,120971
10424,508,340,129495,120969
10426,508,340,129488,120969
10429,507,340,129484,120965
10431,507,340,129484,120958
10434,507,340,129467,120953
10436,507,340,129434,120953
10438,507,340,129423,120941
10441,507,340,129397,120919
10443,507,340,129397,120904
10446,507,340,129354,120901
10448,507,340,129334,120901
10451,507,340,129309,120889
10454,507,340,129309,120865
10457,507,340,129283,120860
10459,507,340,129235,120860
10461,507,340,129213,120841
10464,507,340,129177,120815
10466,507,340,129150,120815
10469,508,340,129150,120789
10471,508,340,129105,120776
10474,508,340,129072,120776
10476,508,340,129072,120754
10478,508,340,129050,120747
10481,508,340,128998,120747
10483,508,340,128984,120742
10486,508,340,128957,120718
10488,508,340,128938,120718
10491,508,340,128938,120695
