TimeStamp,ECG Data,GSR Data,PPG_Red Data,PPG_IR Data
3,0,0,0,0
6,503,368,0,0
8,504,367,57558,57533
11,505,367,73969,73897
13,505,367,90350,90357
15,505,367,106703,106723
18,505,367,123066,121788
20,505,368,131605,121787
23,505,367,131424,121788
25,506,367,131451,121807
28,506,368,131473,121807
30,505,368,131489,121822
33,505,368,131524,121827
35,505,368,131541,121842
37,505,368,131569,121845
40,506,368,131589,121857
43,509,368,131611,121870
46,509,368,131634,121887
48,508,368,131665,121883
51,506,368,131692,121904
53,505,368,131728,121919
55,505,368,131756,121930
58,506,368,131780,121934
60,507,368,131807,121943
63,509,368,131827,121961
65,510,368,131867,121969
68,510,368,131881,121984
70,511,368,131913,122001
73,511,368,131947,122010
75,513,368,131979,122017
77,518,368,132012,122034
80,537,368,132044,122045
82,546,368,132075,122059
86,553,368,132101,122077
88,560,368,132124,122087
91,563,368,132161,122097
93,544,368,132182,122113
95,526,368,132212,122125
98,505,368,132248,122129
100,488,368,132282,122158
103,475,368,132315,122162
105,464,368,132348,122170
108,461,368,132372,122185
110,458,368,132393,122201
113,457,368,132430,122209
115,459,368,132455,122220
117,461,368,132483,122234
120,464,368,132524,122244
122,467,368,132540,122258
125,473,368,132560,122270
128,476,368,132601,122280
131,482,368,132615,122292
133,490,368,132646,122303
135,495,368,132676,122311
138,499,368,132692,122329
140,502,368,132725,122333
143,508,368,132741,122344
145,511,368,132770,122357
148,515,368,132793,122360
150,518,368,132819,122372
153,520,368,132835,122382
155,521,368,132848,122395
157,521,368,132870,122399
160,521,368,132893,122408
162,522,368,132912,122416
165,523,368,132931,122430
167,523,368,132942,122434
171,522,368,132958,122432
173,522,368,132979,122453
175,522,368,133002,122452
178,522,368,133010,122460
180,522,368,133025,122466
183,522,368,133034,122471
185,522,368,133059,122474
188,523,368,133067,122478
190,524,368,133080,122484
193,523,368,133087,122491
195,522,368,133093,122497
197,522,368,133111,122504
200,522,368,133129,122514
202,521,368,133133,122508
205,521,368,133136,122516
207,521,368,133146,122516
210,523,368,133146,122519
212,523,368,133163,122523
215,523,368,133173,122523
218,520,368,133177,122537
220,519,368,133191,122528
223,519,368,133194,122532
225,518,368,133197,122530
228,519,368,133204,122541
230,519,368,133219,122546
233,519,368,133219,122547
235,519,368,133219,122545
237,520,368,133227,122545
240,521,368,133240,122554
242,520,368,133242,122554
245,520,368,133242,122556
247,520,368,133252,122551
250,520,368,133253,122551
252,521,368,133255,122562
254,521,368,133255,122557
258,521,368,133265,122563
260,521,368,133276,122563
263,521,368,133280,122568
265,522,368,133283,122570
268,522,368,133283,122580
270,523,368,133298,122580
273,524,368,133298,122580
275,524,368,133316,122591
277,524,368,133316,122590
280,524,368,133321,122590
282,524,368,133331,122590
285,524,368,133342,122593
287,524,368,133345,122594
290,525,368,133341,122605
292,525,368,133341,122592
294,525,368,133358,122598
297,527,368,133362,122609
300,527,368,133366,122609
303,528,368,133373,122607
305,528,368,133373,122613
308,529,369,133377,122612
310,529,368,133390,122612
313,530,368,133388,122612
315,530,368,133383,122605
317,530,368,133383,122600
320,530,368,133377,122601
322,530,368,133377,122593
325,530,368,133358,122593
327,530,368,133346,122593
330,530,368,133336,122584
332,529,368,133336,122563
334,529,368,133310,122551
337,529,368,133246,122525
339,529,368,133204,122525
343,527,368,133204,122484
345,527,368,133089,122484
348,526,368,133027,122454
350,524,368,133027,122386
353,522,368,132948,122348
355,520,368,132783,122348
357,518,369,132689,122305
360,515,368,132578,122213
362,514,368,132474,122213
365,511,368,132474,122121
367,508,368,132351,122074
370,507,368,132124,122074
372,505,368,132124,121962
374,503,368,132016,121911
377,502,368,131767,121911
379,501,368,131662,121865
382,499,368,131662,121769
385,498,368,131547,121737
388,497,368,131342,121737
390,496,368,131245,121680
393,494,368,131245,121608
395,494,368,131075,121608
397,493,368,130994,121580
400,492,368,130994,121514
402,492,368,130924,121481
405,493,368,130799,121481
407,493,368,130742,121455
410,493,368,130742,121414
412,494,368,130697,121397
414,494,369,130646,121397
417,494,368,130574,121379
419,494,368,130538,121371
422,494,368,130538,121342
424,494,368,130523,121335
428,494,368,130460,121335
430,494,368,130452,121327
433,494,368,130452,121309
435,495,368,130430,121310
437,497,368,130417,121310
440,497,368,130396,121304
442,497,368,130396,121307
445,497,368,130396,121302
447,497,368,130403,121302
450,497,369,130388,121308
452,498,368,130390,121303
454,498,368,130390,121312
457,499,368,130400,121320
459,499,368,130408,121320
462,499,368,130418,121329
464,499,368,130440,121332
467,498,368,130447,121339
470,499,369,130459,121347
473,499,368,130498,121356
475,499,368,130519,121368
477,499,369,130519,121392
480,499,368,130540,121392
482,501,369,130563,121402
485,501,368,130591,121414
487,502,368,130616,121423
490,502,368,130640,121434
492,502,369,130673,121437
494,502,369,130703,121453
497,502,368,130729,121482
499,502,368,130756,121482
502,502,368,130807,121500
504,504,368,130827,121521
507,504,369,130864,121534
509,504,369,130911,121553
513,505,369,130951,121570
515,504,368,130991,121584
517,505,369,131033,121603
520,505,369,131074,121624
522,505,369,131114,121642
525,506,368,131159,121660
527,506,369,131199,121676
530,506,369,131243,121704
532,507,369,131290,121714
534,506,369,131341,121734
537,506,369,131385,121756
539,506,369,131429,121763
542,506,369,131469,121784
544,506,369,131520,121812
547,506,369,131570,121839
549,507,369,131616,121858
552,508,369,131664,121880
555,508,369,131724,121898
557,507,369,131781,121924
560,507,369,131841,121944
562,507,369,131896,121972
565,507,369,131951,121998
567,507,369,132012,122025
570,507,368,132062,122054
572,507,369,132113,122071
574,507,369,132181,122094
577,508,369,132224,122120
579,508,369,132285,122154
582,508,369,132345,122160
584,508,369,132412,122193
587,508,369,132471,122216
589,507,369,132524,122238
592,507,369,132570,122261
594,507,369,132620,122279
596,507,369,132683,122310
600,507,369,132721,122324
602,508,369,132759,122344
605,508,369,132811,122359
607,509,369,132849,122386
610,509,369,132895,122390
612,509,369,132921,122410
614,509,369,132957,122427
617,508,369,132979,122436
619,508,369,133005,122446
622,507,369,133026,122454
624,508,369,133043,122457
627,508,369,133051,122464
629,509,369,133059,122468
632,509,369,133075,122476
634,510,369,133068,122467
636,510,369,133071,122465
640,510,369,133054,122466
642,509,369,133050,122471
645,509,369,133036,122450
647,508,369,133013,122445
650,508,369,132989,122439
652,508,369,132979,122431
654,509,369,132941,122418
657,509,369,132914,122400
659,509,369,132881,122375
662,509,369,132831,122363
664,510,369,132795,122336
667,511,369,132761,122331
669,512,369,132717,122307
672,512,369,132669,122282
674,512,369,132622,122253
676,512,369,132575,122230
679,513,369,132528,122217
681,513,369,132480,122189
685,514,369,132480,122170
687,515,369,132375,122153
690,516,369,132324,122153
692,517,369,132303,122112
694,517,369,132241,122087
697,515,369,132198,122068
699,515,369,132160,122049
702,515,369,132121,122040
704,515,369,132081,122029
707,516,369,132044,122003
709,517,369,132006,121991
712,516,369,132006,121982
714,516,369,131950,121963
716,514,369,131925,121957
719,514,369,131911,121943
721,512,369,131884,121942
724,512,369,131853,121935
727,510,369,131852,121925
730,509,369,131852,121920
732,508,369,131822,121921
734,507,369,131817,121921
737,506,369,131806,121921
739,506,369,131806,121917
742,506,369,131806,121916
744,506,369,131808,121916
747,506,369,131815,121913
749,505,369,131806,121919
752,505,369,131811,121922
754,505,369,131824,121932
756,506,369,131824,121934
759,506,369,131851,121938
761,507,369,131861,121953
764,508,369,131861,121955
766,508,369,131890,121955
770,508,369,131913,121969
772,507,369,131923,121976
774,507,369,131923,121987
777,507,369,131961,121996
779,507,369,131983,121996
782,506,369,132004,122025
784,507,369,132004,122033
787,507,369,132027,122046
789,507,369,132078,122046
792,507,369,132103,122057
794,507,369,132128,122072
796,507,369,132128,122088
799,508,369,132187,122098
801,510,369,132218,122098
804,510,369,132241,122116
806,513,369,132241,122133
809,517,369,132304,122143
812,520,369,132340,122143
814,525,369,132367,122154
817,541,369,132402,122182
819,548,369,132428,122182
822,562,369,132428,122203
824,568,369,132461,122221
827,568,369,132521,122221
829,553,369,132521,122252
832,530,369,132562,122264
834,512,369,132619,122264
836,496,369,132663,122277
839,469,369,132688,122305
841,463,369,132727,122305
844,451,369,132727,122329
846,447,369,132755,122343
849,447,369,132813,122343
851,450,369,132813,122368
854,454,369,132850,122381
857,459,369,132903,122381
859,463,369,132931,122390
862,473,369,132931,122427
864,478,369,133000,122427
867,487,369,133000,122448
869,494,369,133036,122464
872,498,369,133092,122464
874,503,369,133092,122470
876,508,369,133117,122490
879,512,369,133167,122503
881,515,369,133167,122518
884,517,369,133198,122529
886,518,369,133223,122535
889,519,369,133245,122535
891,519,369,133303,122545
893,520,369,133303,122570
897,520,370,133346,122570
899,520,369,133346,122580
902,521,369,133367,122603
904,521,369,133395,122608
907,521,369,133414,122608
909,521,369,133464,122617
912,522,369,133464,122634
914,522,369,133488,122634
916,522,369,133488,122650
919,522,369,133520,122661
921,521,369,133550,122665
924,521,369,133562,122672
926,521,370,133581,122690
929,521,370,133600,122690
931,521,369,133617,122697
933,521,370,133638,122693
936,520,370,133660,122702
939,521,370,133671,122714
942,521,370,133706,122715
944,521,370,133706,122736
947,521,370,133722,122736
949,521,369,133737,122740
952,521,370,133773,122749
954,520,370,133760,122755
956,520,370,133773,122756
959,520,370,133801,122753
961,519,370,133810,122770
964,519,370,133830,122777
966,519,370,133839,122787
969,519,370,133850,122790
971,519,370,133860,122793
973,520,370,133874,122795
976,520,370,133883,122797
978,521,370,133915,122808
982,521,369,133912,122816
984,521,370,133935,122816
987,521,370,133955,122831
989,521,370,133963,122833
992,521,370,133974,122838
994,521,370,133989,122841
996,521,370,134003,122851
999,521,370,134015,122850
1001,521,370,134020,122860
1004,521,370,134040,122869
1006,521,370,134061,122865
1009,521,370,134073,122876
1011,521,370,134087,122885
1013,521,370,134105,122886
1016,521,370,134108,122889
1018,521,370,134128,122896
1021,522,370,134133,122893
1024,522,370,134142,122904
1027,522,370,134145,122909
1029,523,370,134162,122918
1032,523,370,134169,122923
1034,524,370,134181,122921
1036,524,370,134188,122927
1039,524,370,134201,122920
1041,525,370,134207,122931
1044,525,370,134192,122916
1046,525,370,134186,122930
1049,525,370,134188,122920
1051,525,370,134153,122909
1053,525,370,134139,122904
1056,526,370,134107,122879
1058,526,370,134067,122859
1061,526,370,134014,122822
1063,526,370,133955,122798
1067,527,370,133866,122764
1069,527,370,133774,122714
1072,527,370,133670,122663
1074,526,370,133548,122605
1076,525,370,133425,122551
1079,524,370,133278,122487
1081,523,370,133127,122431
1084,523,370,132979,122352
1086,521,370,132824,122289
1089,520,370,132653,122224
1091,518,370,132505,122158
1093,516,370,132331,122075
1096,513,370,132175,122015
1098,511,370,132021,121950
1101,510,370,131865,121885
1103,508,370,131712,121831
1106,506,370,131579,121770
1108,504,370,131444,121721
1112,502,370,131331,121664
1114,500,370,131220,121629
1116,499,370,131114,121587
1119,498,370,131017,121549
1121,497,370,130941,121516
1124,496,370,130865,121487
1126,494,370,130791,121462
1129,493,370,130747,121432
1131,492,370,130694,121424
1133,492,370,130642,121385
1136,491,370,130605,121391
1138,491,370,130565,121361
1141,491,370,130537,121353
1143,491,370,130496,121343
1146,491,370,130485,121330
1148,492,370,130466,121328
1152,492,370,130442,121322
1154,492,370,130433,121314
1156,492,370,130423,121311
1159,493,370,130418,121316
1161,493,370,130418,121319
1164,493,370,130418,121318
1166,493,370,130411,121323
1169,494,370,130418,121323
1171,495,370,130430,121328
1173,495,370,130435,121331
1176,495,370,130440,121338
1178,495,370,130440,121339
1181,496,370,130465,121354
1183,496,370,130479,121367
1186,496,370,130479,121376
1188,497,370,130523,121384
1191,497,370,130540,121384
1193,497,370,130570,121404
1196,498,370,130591,121412
1199,499,370,130623,121422
1201,499,370,130623,121440
1204,499,370,130679,121449
1206,500,370,130703,121449
1209,500,370,130745,121489
1211,500,370,130772,121489
1213,500,370,130772,121508
1216,500,371,130844,121529
1218,501,370,130883,121529
1221,500,370,130929,121572
1223,501,370,130929,121578
1226,501,370,130965,121600
1228,502,370,131042,121600
1231,502,370,131091,121613
1233,502,370,131131,121647
1235,502,370,131131,121672
1239,503,370,131211,121695
1241,503,370,131260,121695
1244,503,371,131304,121727
1246,504,370,131304,121734
1249,504,370,131343,121752
1251,504,370,131428,121752
1253,505,370,131473,121773
1256,505,370,131511,121806
1258,505,371,131511,121825
1261,506,370,131584,121845
1263,506,371,131633,121845
1266,506,371,131672,121863
1268,506,370,131672,121895
1271,506,371,131704,121913
1273,506,371,131785,121913
1275,507,371,131828,121926
1278,507,371,131863,121960
1281,507,371,131893,121960
1284,507,371,131893,121983
1286,507,370,131922,122013
1289,507,371,132013,122013
1291,507,371,132013,122040
1293,506,370,132041,122051
1296,506,371,132123,122051
1298,506,371,132134,122070
1301,506,371,132189,122102
1303,507,371,132231,122102
1306,507,371,132231,122129
1308,508,371,132276,122144
1311,508,371,132339,122144
1313,507,371,132339,122174
1315,507,371,132381,122194
1318,507,371,132455,122194
1320,507,371,132496,122212
1324,507,371,132496,122235
1326,507,371,132559,122235
1329,508,371,132559,122265
1331,508,371,132559,122273
1333,508,371,132639,122273
1336,508,371,132639,122288
1338,508,371,132669,122293
1341,508,371,132699,122293
1343,508,371,132715,122309
1346,507,371,132715,122319
1348,507,371,132721,122320
1351,507,371,132731,122320
1353,507,371,132740,122320
1355,507,371,132728,122323
1358,507,371,132728,122314
1360,508,371,132714,122308
1363,508,371,132682,122308
1366,508,371,132661,122298
1369,508,371,132661,122279
1371,508,371,132647,122264
1373,508,371,132618,122264
1376,508,371,132577,122255
1378,508,371,132548,122238
1381,508,371,132517,122218
1383,508,371,132482,122195
1386,509,371,132395,122180
1388,509,371,132353,122160
1391,510,371,132353,122120
1393,510,371,132312,122104
1395,511,371,132261,122104
1398,511,371,132216,122081
1553,518,371,132127,122075
1555,524,371,132166,122087
1558,534,371,132181,122091
1560,551,371,132227,122108
1563,560,371,132252,122129
1565,569,371,132286,122143
1568,575,371,132313,122144
1570,572,371,132359,122166
1572,556,371,132379,122149
1575,519,371,132419,122184
1577,496,371,132461,122198
1581,480,371,132486,122217
1583,465,371,132522,122233
1586,453,371,132542,122246
1588,440,371,132583,122256
1591,438,371,132610,122265
1593,438,371,132640,122278
1595,441,371,132671,122289
1598,450,371,132698,122305
1600,457,371,132735,122315
1603,462,371,132768,122323
1605,474,371,132797,122331
1608,479,371,132825,122351
1610,487,371,132853,122363
1612,496,371,132871,122374
1615,500,371,132913,122389
1617,505,371,132921,122393
1620,511,371,132945,122411
1623,513,371,132971,122411
1626,515,371,132971,122424
1628,516,371,133024,122432
1631,517,371,133049,122432
1633,518,371,133074,122453
1635,519,371,133089,122464
1638,518,371,133109,122466
1640,518,371,133121,122481
1643,519,372,133144,122485
1645,520,371,133163,122491
1648,520,371,133163,122493
1650,520,372,133194,122504
1652,520,371,133214,122504
1655,520,372,133234,122523
1657,520,372,133241,122522
1660,520,372,133263,122531
1662,520,372,133263,122537
1666,520,371,133275,122549
1668,520,372,133287,122548
1671,520,372,133287,122555
1673,520,372,133313,122552
1675,520,372,133328,122552
1678,520,372,133343,122566
1680,520,372,133343,122566
1683,520,372,133349,122578
1685,520,372,133371,122578
1688,520,372,133379,122580
1690,520,372,133385,122586
1692,519,372,133385,122589
1695,519,372,133401,122591
1697,520,372,133410,122591
1700,519,372,133412,122600
1702,519,372,133412,122604
1705,519,372,133420,122601
1708,520,372,133440,122601
1711,520,372,133443,122601
1713,519,372,133451,122611
1715,519,372,133451,122610
1718,519,372,133462,122620
1720,519,372,133470,122620
1723,519,372,133471,122622
1725,519,372,133471,122619
1728,519,372,133480,122630
1730,519,372,133492,122630
1732,519,372,133505,122629
1735,519,372,133513,122632
1737,519,372,133516,122632
1740,519,372,133530,122645
1742,519,372,133530,122649
1745,520,372,133533,122652
1747,521,372,133543,122652
1751,520,372,133554,122654
1753,521,372,133554,122661
1755,521,372,133559,122662
1758,521,372,133567,122662
1760,521,372,133575,122659
1763,522,372,133575,122663
1765,522,372,133575,122664
1768,522,372,133585,122667
1770,523,372,133583,122667
1772,523,372,133587,122672
1775,523,372,133587,122666
1777,524,372,133580,122656
1780,524,372,133557,122656
1782,524,372,133542,122653
1785,525,372,133542,122621
1787,525,372,133482,122621
1790,525,372,133442,122611
1793,526,372,133442,122552
1795,526,372,133379,122517
1798,527,372,133234,122517
1800,527,372,133145,122481
1803,528,372,133145,122391
1805,528,372,133047,122334
1808,528,372,132790,122334
1810,528,372,132653,122283
1812,528,372,132505,122222
1815,527,372,132505,122093
1817,527,372,132356,122019
1820,526,372,132040,122019
1822,525,372,131881,121949
1825,524,373,131881,121823
1827,522,372,131731,121758
1830,521,372,131569,121758
1832,520,372,131291,121699
1835,518,372,131160,121649
1838,515,372,131160,121554
1840,512,372,131044,121504
1843,511,373,130839,121504
1845,509,372,130744,121466
1848,507,372,130744,121395
1850,503,372,130669,121364
1852,502,373,130591,121364
1855,500,373,130525,121341
1857,499,373,130471,121324
1860,497,373,130414,121295
1862,495,373,130367,121270
1865,494,373,130283,121258
1867,493,373,130247,121246
1870,492,373,130247,121221
1872,490,373,130224,121221
1874,490,373,130188,121212
1878,489,372,130157,121205
1880,489,373,130139,121197
1883,489,372,130129,121184
1885,489,373,130119,121178
1888,489,373,130104,121172
1890,489,373,130095,121181
1892,490,372,130083,121169
1895,490,373,130091,121172
1897,490,373,130077,121173
1900,490,372,130079,121173
1902,490,373,130087,121174
1905,490,373,130094,121175
1907,491,373,130099,121181
1910,492,373,130109,121191
1912,492,373,130114,121191
1914,492,373,130128,121201
1917,492,373,130135,121210
1920,493,373,130156,121221
1923,493,373,130172,121228
1925,493,373,130185,121227
1928,493,373,130212,121240
1930,494,373,130220,121252
1932,494,373,130248,121256
1935,495,373,130270,121267
1937,495,373,130290,121278
1940,496,373,130304,121281
1942,496,373,130325,121293
1945,497,373,130348,121306
1947,497,373,130374,121315
1950,497,373,130402,121324
1952,498,373,130428,121328
1954,498,373,130451,121336
1957,498,373,130485,121355
1959,499,373,130509,121363
1963,499,373,130536,121374
1965,500,373,130557,121388
1968,500,373,130580,121395
1970,500,373,130605,121409
1972,500,373,130644,121420
1975,501,373,130660,121437
1977,501,373,130683,121440
1980,501,373,130714,121453
1982,502,373,130759,121467
1985,502,373,130790,121477
1987,502,373,130820,121497
1990,502,373,130845,121510
1992,503,373,130881,121518
1994,503,373,130905,121533
1997,503,373,130936,121543
1999,503,373,130966,121558
2002,503,373,130998,121569
2004,503,373,131025,121579
2008,503,373,131055,121592
2010,503,373,131080,121604
2012,504,373,131104,121615
2015,504,373,131133,121626
2017,504,373,131163,121644
2020,504,373,131186,121659
2022,504,373,131216,121661
2025,505,373,131225,121673
2027,505,373,131257,121682
2030,505,373,131292,121692
2032,505,373,131311,121703
2034,505,373,131338,121713
2037,505,373,131348,121720
2039,506,373,131381,121735
2042,506,373,131413,121746
2044,506,373,131425,121747
2048,507,373,131451,121763
2050,507,373,131489,121778
2052,507,373,131495,121756
2055,507,373,131516,121792
2057,506,373,131541,121796
2060,506,373,131566,121809
2062,506,373,131584,121817
2065,506,373,131604,121826
2067,506,373,131630,121836
2070,507,373,131644,121842
2072,507,373,131656,121842
2074,507,373,131664,121853
2077,508,373,131677,121854
2079,508,373,131692,121857
2082,508,373,131692,121865
2084,508,373,131698,121864
2087,508,373,131701,121864
2089,508,373,131719,121869
2092,508,373,131715,121867
2095,508,373,131705,121863
2097,508,373,131708,121870
2100,508,373,131710,121869
2102,508,373,131693,121866
2105,508,373,131693,121859
2107,508,373,131672,121851
2110,508,373,131659,121851
2112,507,373,131653,121841
2114,507,373,131633,121822
2117,507,373,131603,121808
2119,507,373,131603,121798
2122,507,373,131563,121788
2124,508,373,131541,121779
2127,508,373,131541,121773
2129,508,373,131493,121759
2131,509,373,131468,121759
2135,509,373,131446,121738
2137,510,373,131446,121720
2140,510,373,131398,121719
2142,511,373,131367,121719
2145,512,373,131343,121688
2147,513,373,131308,121674
2150,513,373,131282,121670
2152,513,373,131255,121647
2154,513,373,131228,121647
2157,513,373,131200,121624
2159,513,373,131200,121618
2162,513,373,131174,121604
2164,514,373,131118,121604
2167,514,373,131115,121599
2169,516,373,131083,121579
2171,517,373,131083,121573
2174,517,373,131039,121559
2177,517,373,131024,121559
2180,517,373,131008,121549
2182,516,373,131008,121552
2185,516,373,130999,121541
2187,516,373,130976,121541
2190,516,373,130980,121531
2192,515,373,130968,121532
2194,514,373,130968,121526
2197,514,373,130960,121532
2199,513,373,130962,121532
2202,512,373,130967,121535
2204,511,373,130967,121541
2207,509,373,130970,121539
2209,508,373,130978,121539
2211,507,373,130987,121549
2214,505,373,130988,121546
2216,504,373,131001,121546
2220,504,373,131001,121572
2222,504,373,131017,121579
2225,504,373,131045,121579
2227,504,373,131045,121590
2230,504,373,131069,121600
2232,504,373,131099,121600
2234,503,373,131116,121609
2237,503,373,131130,121625
2239,504,373,131154,121625
2242,504,373,131154,121637
2244,504,373,131178,121650
2247,504,373,131222,121650
2249,504,373,131222,121667
2251,504,373,131248,121682
2254,504,373,131293,121682
2256,504,373,131316,121690
2259,504,373,131316,121704
2262,504,373,131335,121717
2265,505,373,131362,121717
2267,504,373,131411,121724
2270,505,373,131411,121745
2272,505,373,131455,121745
2274,505,373,131481,121759
2277,505,373,131481,121778
2279,505,373,131505,121788
2282,506,373,131565,121788
2284,506,373,131595,121796
2287,507,373,131595,121827
2289,508,373,131620,121836
2291,510,373,131651,121836
2294,512,373,131702,121847
2296,515,373,131725,121861
2299,526,373,131725,121877
2301,538,373,131760,121882
2305,547,373,131809,121882
2307,556,373,131836,121906
2310,565,373,131836,121930
2312,575,373,131871,121934
2314,572,373,131892,121934
2317,559,373,131921,121953
2319,540,373,131955,121959
2322,521,373,131981,121971
2324,483,373,132011,121982
2327,468,373,132064,121993
2329,456,373,132097,122012
2331,448,373,132097,122030
2334,438,373,132121,122031
2336,438,373,132140,122031
2339,441,373,132168,122052
2341,445,373,132188,122057
2344,451,373,132217,122061
2347,467,373,132246,122075
2350,475,373,132291,122085
2352,482,373,132291,122092
2354,487,373,132305,122099
2357,498,373,132341,122116
2359,503,373,132370,122120
2362,507,373,132372,122138
2364,510,373,132404,122136
2367,512,373,132421,122142
2369,516,373,132440,122147
2371,517,373,132460,122167
2374,517,373,132482,122172
2376,518,373,132494,122173
2379,518,373,132513,122184
2381,519,373,132523,122189
2384,519,373,132542,122196
2386,520,373,132560,122202
2390,520,373,132576,122207
2392,520,373,132589,122214
2394,520,373,132599,122217
2397,519,373,132615,122225
2399,519,373,132624,122227
2402,519,373,132639,122232
2404,520,373,132640,122244
2407,520,373,132656,122247
2409,520,373,132673,122243
2411,520,373,132685,122254
2414,520,373,132701,122257
2416,520,373,132699,122266
2419,520,373,132707,122263
2421,519,373,132712,122260
2424,519,373,132711,122280
2426,519,373,132726,122276
2429,519,373,132748,122283
2432,520,373,132754,122283
2434,520,373,132758,122284
2437,520,373,132769,122291
2439,520,373,132775,122293
2442,520,373,132780,122291
2444,520,373,132782,122300
2447,519,373,132789,122303
2449,519,373,132797,122312
2451,519,373,132803,122308
2454,520,373,132819,122314
2456,519,373,132822,122315
2459,519,373,132834,122316
2461,519,373,132843,122318
2464,519,373,132841,122326
2466,520,373,132861,122328
2469,520,373,132874,122332
2471,520,373,132879,122340
2473,520,373,132893,122335
2477,520,373,132894,122343
2479,520,373,132911,122355
2482,521,373,132929,122351
2484,521,373,132929,122364
2487,521,373,132942,122364
2489,521,373,132951,122367
2491,521,373,132958,122368
2494,521,373,132969,122371
2496,521,373,132978,122374
2499,522,373,132983,122379
2501,522,373,133005,122386
2504,522,373,133003,122393
2506,522,373,133009,122397
2509,523,373,133018,122393
2511,523,373,133024,122399
2513,523,373,133030,122395
2516,524,373,133025,122395
2519,524,373,133029,122394
2522,525,373,133021,122402
2524,525,373,133021,122391
2527,526,373,133011,122386
2529,526,373,132996,122383
2531,526,373,132971,122343
2534,527,373,132934,122352
2536,527,373,132898,122320
2539,527,373,132855,122302
2541,528,373,132796,122263
2544,528,373,132718,122231
2546,529,373,132649,122198
2549,529,373,132538,122145
2551,529,373,132434,122095
2553,529,373,132315,122095
2556,528,373,132177,121986
2558,528,373,132041,121914
2562,528,373,132041,121853
2564,527,373,131754,121794
2567,527,373,131604,121794
2569,524,373,131467,121671
2571,523,373,131308,121611
2574,521,373,131163,121553
2576,520,373,131163,121491
2579,518,373,130908,121447
2581,515,373,130799,121401
2584,513,373,130799,121354
2586,510,373,130608,121324
2589,509,373,130519,121324
2591,504,373,130448,121263
2593,503,373,130375,121229
2596,500,374,130313,121203
2598,499,373,130313,121184
2601,497,373,130200,121164
2604,496,373,130162,121164
2607,495,373,130120,121124
2609,493,373,130075,121111
2611,492,373,130075,121095
2614,492,373,130003,121091
2616,491,373,129972,121091
2619,491,373,129954,121062
2621,490,373,129954,121054
2624,490,373,129932,121052
2626,490,373,129891,121052
2629,490,373,129891,121046
2631,489,373,129874,121038
2633,489,373,129874,121040
2636,489,373,129861,121032
2638,490,373,129864,121032
2641,490,374,129865,121043
2643,490,373,129865,121037
2647,491,373,129868,121043
2649,491,373,129880,121043
2651,491,373,129904,121056
2654,492,373,129904,121066
2656,492,374,129904,121072
2659,492,374,129925,121086
2661,493,373,129951,121086
2664,493,373,129963,121095
2666,493,373,129963,121106
2669,494,373,129988,121113
2671,495,373,130023,121113
2673,495,374,130053,121123
2676,496,373,130068,121138
2678,496,373,130095,121138
2681,497,373,130095,121156
2683,497,373,130125,121164
2686,497,373,130174,121164
2689,498,373,130174,121195
2691,498,373,130206,121211
2694,499,373,130256,121211
2696,499,374,130286,121214
2699,499,373,130313,121246
2701,499,374,130350,121246
2704,500,373,130350,121270
2706,500,373,130381,121284
2709,501,373,130447,121284
2711,501,374,130447,121309
2713,501,373,130482,121324
2716,501,374,130534,121324
2718,501,373,130576,121332
2721,501,373,130576,121357
2723,502,374,130627,121357
2726,502,374,130627,121381
2728,502,374,130644,121395
2731,502,374,130718,121395
2734,503,374,130718,121412
2736,503,374,130755,121433
2739,503,374,130815,121433
2741,503,374,130854,121453
2744,504,374,130854,121481
2746,504,374,130884,121487
2749,504,374,130904,121487
2751,504,374,130963,121491
2753,505,374,130986,121508
2756,505,374,130986,121538
2758,505,374,131020,121543
2761,505,374,131058,121543
2763,505,374,131091,121551
2766,505,374,131091,121569
2768,506,374,131116,121580
2770,506,374,131136,121580
2774,506,374,131162,121594
2776,506,374,131182,121605
2779,506,374,131211,121610
2781,506,374,131247,121620
2784,506,374,131291,121634
2786,506,374,131311,121649
2789,506,374,131311,121670
2791,506,374,131343,121674
2793,506,374,131373,121674
2796,506,374,131402,121689
2798,506,374,131426,121698
2801,506,374,131447,121716
2803,507,374,131484,121722
2806,507,374,131531,121732
2808,507,374,131547,121747
2810,507,374,131547,121764
2813,507,374,131571,121764
2816,507,374,131588,121769
2819,507,374,131614,121774
2821,507,374,131621,121780
2824,507,374,131634,121782
2826,508,374,131648,121789
2829,507,374,131649,121792
2831,507,374,131654,121791
2833,507,374,131656,121790
2836,507,374,131653,121795
2838,507,374,131658,121789
2841,507,374,131652,121790
2843,508,374,131647,121786
2846,508,374,131633,121778
2848,508,374,131619,121771
2850,508,374,131589,121763
2853,508,374,131565,121760
2855,508,374,131551,121749
2859,508,374,131523,121732
2861,508,374,131511,121714
2864,508,374,131476,121711
2866,508,374,131446,121685
2869,507,374,131427,121677
2871,508,374,131396,121658
2873,508,374,131349,121650
2876,508,374,131322,121635
2878,508,374,131285,121617
2881,508,374,131259,121593
2883,508,374,131233,121584
2886,508,374,131181,121573
2888,508,374,131146,121547
2890,508,374,131113,121536
2893,508,374,131078,121519
2895,508,374,131044,121506
2898,508,374,131008,121488
2900,508,374,130991,121478
2904,508,374,130967,121467
2906,509,374,130939,121453
2909,509,374,130902,121444
2911,509,374,130889,121436
2913,508,374,130880,121426
2916,508,374,130849,121419
2918,508,374,130829,121412
2921,509,374,130811,121405
2923,509,374,130799,121408
2926,509,374,130787,121398
2928,509,374,130776,121390
2930,509,374,130767,121395
2933,511,374,130766,121393
2935,511,374,130759,121391
2938,512,374,130762,121392
2940,512,374,130761,121393
2944,512,374,130757,121394
2946,513,374,130757,121388
2949,513,374,130764,121391
2951,513,374,130766,121396
2953,513,374,130773,121401
2956,513,374,130779,121413
2958,515,374,130782,121410
2961,516,374,130807,121420
2963,517,374,130808,121426
2966,517,374,130824,121432
2968,516,374,130837,121436
2970,516,374,130850,121409
2973,516,374,130865,121449
2975,516,374,130889,121453
2978,516,374,130907,121465
2980,516,374,130918,121474
2983,516,374,130941,121480
2985,515,374,130958,121494
2989,514,374,130983,121487
2991,513,374,131009,121503
2993,512,374,131028,121516
2996,510,374,131043,121523
2998,509,374,131063,121518
3001,509,374,131063,121535
3003,508,374,131116,121549
3006,507,374,131145,121549
3008,505,374,131169,121567
3010,505,374,131192,121566
3013,505,374,131215,121585
3015,505,374,131250,121593
3018,505,374,131275,121607
3020,505,374,131293,121623
3023,505,374,131327,121636
3025,505,374,131351,121637
3028,505,374,131351,121649
3031,505,374,131408,121666
3033,505,374,131436,121671
3036,505,374,131470,121685
3038,505,374,131485,121693
3041,506,374,131520,121709
3043,506,374,131544,121715
3046,505,374,131544,121726
3048,505,374,131599,121740
3050,505,374,131628,121740
3053,505,374,131659,121765
3055,505,374,131679,121776
3058,506,374,131713,121782
3060,506,374,131713,121795
3063,506,374,131763,121809
3065,506,374,131794,121818
3068,506,374,131794,121827
3070,507,374,131844,121840
3073,507,374,131872,121840
3076,508,374,131902,121869
3078,509,374,131902,121870
3081,511,374,131947,121882
3083,513,374,131969,121882
3086,516,374,131994,121886
3088,525,374,132016,121910
3090,532,374,132034,121910
3093,552,374,132058,121920
3095,560,374,132058,121938
3098,569,374,132106,121949
3100,573,374,132120,121949
3103,570,374,132145,121964
3105,546,374,132145,121973
3108,521,374,132160,121983
3110,492,374,132195,121982
3112,478,374,132195,121991
3116,464,374,132237,121997
3118,456,374,132260,121997
3121,449,374,132265,122005
3123,442,374,132265,122017
3126,443,374,132300,122026
3128,446,374,132311,122026
3130,450,374,132344,122031
3133,462,374,132351,122050
3135,467,374,132360,122050
3138,480,374,132376,122051
3140,486,374,132376,122064
3143,491,374,132410,122064
3145,498,374,132410,122078
3148,503,374,132421,122073
3150,507,374,132436,122073
3152,510,374,132454,122087
3155,514,374,132454,122090
3158,515,374,132470,122099
3161,516,374,132490,122099
3163,516,374,132497,122101
3166,517,374,132497,122112
3168,517,374,132506,122112
3170,518,374,132519,122114
3173,518,374,132519,122117
3175,518,374,132531,122118
3178,518,374,132545,122118
3180,518,374,132548,122125
3183,518,374,132548,122130
3185,518,374,132553,122132
3188,519,374,132562,122132
3190,519,374,132562,122130
3192,519,374,132579,122133
3195,519,374,132576,122138
3197,519,374,132576,122140
3201,519,374,132589,122148
3203,519,374,132593,122151
3206,519,374,132595,122151
3208,519,374,132615,122149
3210,519,374,132615,122150
3213,519,374,132612,122150
3215,519,374,132614,122154
3218,519,374,132614,122157
3220,518,374,132616,122153
3223,518,375,132623,122153
3225,518,374,132628,122158
3228,518,374,132628,122165
3230,518,374,132642,122165
3232,519,374,132642,122170
3235,519,374,132635,122168
3237,519,374,132644,122172
3240,519,374,132644,122172
3243,519,374,132652,122174
3246,519,375,132663,122174
3248,519,374,132668,122176
3250,519,374,132672,122180
3253,519,374,132678,122179
3255,519,375,132684,122182
3258,519,374,132695,122191
3260,519,374,132695,122187
3263,519,375,132711,122196
3265,519,375,132711,122196
3268,519,375,132722,122198
3270,519,375,132735,122206
3272,519,375,132730,122197
3275,519,375,132757,122204
3277,520,375,132763,122207
3280,520,375,132772,122206
3282,521,375,132783,122219
3286,521,375,132785,122218
3288,522,374,132804,122226
3290,522,375,132822,122224
3293,522,374,132816,122233
3295,522,375,132834,122233
3298,522,374,132844,122233
3300,523,375,132843,122242
3303,523,374,132845,122236
3305,524,374,132854,122240
3308,524,375,132862,122247
3310,525,375,132861,122244
3312,525,374,132852,122238
3315,526,374,132841,122238
3317,526,375,132847,122239
3320,526,375,132829,122230
3322,526,375,132809,122210
3325,527,374,132777,122199
3328,527,375,132733,122178
3330,527,375,132681,122143
3333,528,375,132616,122115
3335,527,375,132543,122077
3338,528,375,132456,122039
3340,528,375,132349,121990
3343,528,375,132239,121937
3345,528,375,132113,121882
3348,527,375,131991,121822
3350,527,375,131848,121764
3352,526,374,131713,121700
3355,525,375,131560,121637
3357,524,375,131427,121583
3360,523,375,131292,121525
3362,522,375,131155,121474
3365,520,375,131022,121415
3367,517,375,130907,121375
3369,514,375,130789,121329
3373,513,375,130697,121286
3375,510,375,130614,121246
3378,508,374,130512,121210
3380,505,375,130434,121182
3383,504,375,130368,121156
3385,502,375,130303,121123
3388,501,375,130250,121097
3390,498,375,130181,121073
3392,497,375,130135,121065
3395,496,375,130090,121035
3397,495,374,130050,121014
3400,493,375,130005,121010
3402,492,375,129979,120991
3405,492,375,129935,120983
3407,491,375,129909,120975
3409,491,375,129903,120957
3412,490,375,129870,120955
3415,490,375,129858,120947
3418,489,375,129844,120948
3420,489,375,129830,120954
3423,489,375,129830,120945
3425,490,375,129840,120951
3428,490,375,129822,120949
3430,490,375,129826,120956
3432,490,375,129845,120961
3435,490,375,129846,120966
3437,490,375,129852,120968
3440,491,375,129866,120967
3442,491,375,129876,120982
3445,492,375,129891,120985
3447,492,375,129896,120990
3449,493,375,129923,121001
3452,493,375,129937,121008
3454,493,375,129949,121010
3458,494,375,129968,121025
3460,494,375,129985,121027
3463,494,375,130016,121041
3465,495,375,130036,121048
3468,495,375,130059,121060
3470,496,375,130086,121074
3472,496,375,130111,121077
3475,496,375,130144,121085
3477,497,375,130161,121093
3480,497,375,130161,121110
3482,497,375,130228,121120
3485,498,375,130256,121120
3487,498,375,130298,121145
3489,499,375,130326,121151
3492,499,375,130357,121171
3494,499,375,130357,121187
3497,500,375,130421,121195
3500,501,375,130456,121210
3503,501,375,130456,121228
3505,501,375,130524,121235
3508,501,375,130561,121235
3510,502,375,130600,121269
3512,502,375,130628,121277
3515,502,375,130669,121292
3517,502,375,130669,121312
3520,502,375,130732,121323
3522,503,375,130767,121341
3525,503,375,130767,121347
3527,503,375,130835,121367
3529,503,375,130870,121367
3532,504,375,130917,121402
3534,504,375,130917,121413
3537,504,375,130975,121425
3539,504,375,130992,121425
3543,504,375,131031,121438
3545,504,375,131062,121457
3548,505,375,131087,121477
3550,505,375,131125,121489
3552,505,375,131146,121489
3555,506,375,131180,121510
3557,506,375,131180,121530
3560,506,375,131213,121536
3562,507,375,131255,121536
3565,507,375,131287,121540
3567,507,375,131319,121566
3569,507,375,131319,121581
3572,507,375,131373,121581
3574,507,375,131395,121593
3577,507,375,131417,121615
3579,507,375,131417,121622
3582,507,375,131447,121632
3585,507,375,131508,121632
3588,507,375,131540,121655
3590,508,375,131540,121666
3592,508,375,131571,121684
3595,508,375,131616,121684
3597,508,375,131649,121690
3600,507,375,131659,121712
3602,508,375,131659,121721
3605,508,375,131700,121721
3607,508,375,131720,121721
3609,508,375,131730,121733
3612,508,375,131739,121737
3614,508,375,131747,121737
3617,508,375,131747,121737
3619,507,375,131747,121751
3622,508,375,131743,121751
3624,507,375,131743,121738
3628,507,375,131743,121739
3630,507,375,131709,121739
3632,507,375,131701,121733
3635,507,375,131701,121721
3637,507,375,131679,121711
3640,507,375,131647,121711
3642,507,375,131621,121697
3645,507,375,131621,121667
3647,507,375,131560,121667
3649,507,375,131534,121661
3652,507,375,131534,121620
3654,508,375,131497,121615
3657,508,375,131429,121615
3659,508,375,131395,121594
3662,508,375,131395,121561
3664,508,375,131356,121540
3667,508,375,131311,121540
3670,508,375,131248,121528
3672,508,375,131203,121514
3675,508,375,131203,121476
3677,508,375,131166,121462
3680,508,375,131085,121462
3682,508,375,131055,121450
3685,508,375,131055,121413
3687,508,375,131022,121400
3689,509,375,130997,121400
3692,509,375,130929,121392
3694,509,375,130906,121375
3697,509,375,130906,121362
3699,509,375,130879,121354
3702,509,375,130827,121346
3704,509,375,130808,121338
3707,509,375,130808,121324
3709,509,375,130808,121318
3712,509,375,130774,121318
3715,509,375,130771,121317
3717,509,375,130761,121309
3720,509,375,130747,121301
3722,509,375,130748,121306
3725,509,375,130744,121306
3727,509,375,130734,121306
3729,510,375,130734,121299
3732,509,375,130740,121299
3734,509,375,130732,121304
3737,509,375,130746,121315
3739,509,375,130755,121301
3742,509,375,130757,121306
3744,509,375,130754,121311
3747,509,375,130758,121322
3749,509,375,130762,121327
3751,509,375,130769,121337
3755,510,375,130786,121337
3757,510,375,130796,121338
3760,510,375,130820,121354
3762,511,375,130845,121353
3765,511,375,130850,121361
3767,511,375,130864,121359
3769,512,375,130877,121365
3772,512,375,130888,121375
3774,512,375,130909,121386
3777,512,375,130923,121392
3779,514,376,130946,121405
3782,515,375,130960,121411
3784,516,375,130992,121412
3787,516,375,131012,121418
3789,515,375,131041,121431
3791,515,375,131060,121444
3794,515,376,131077,121446
3796,516,375,131106,121454
3800,516,375,131127,121471
3802,516,375,131146,121478
3805,516,375,131178,121490
3807,515,376,131192,121498
3809,514,375,131221,121515
3812,513,376,131253,121518
3814,512,376,131288,121529
3817,511,375,131312,121537
3819,509,375,131338,121556
3822,508,376,131368,121567
3824,507,375,131392,121577
3827,506,375,131420,121585
3829,505,376,131443,121599
3831,505,375,131474,121614
3834,505,376,131509,121621
3836,505,375,131538,121628
3840,505,375,131551,121642
3842,505,375,131579,121650
3845,505,375,131615,121665
3847,505,375,131634,121678
3849,505,375,131671,121692
3852,505,376,131694,121701
3854,505,375,131719,121707
3857,505,376,131737,121723
3859,505,375,131765,121736
3862,505,375,131785,121736
3864,505,375,131814,121750
3867,506,375,131835,121747
3869,506,376,131863,121767
3871,506,375,131893,121790
3874,506,376,131914,121787
3876,506,376,131939,121801
3879,507,376,131956,121811
3881,507,375,131978,121818
3885,507,376,132004,121824
3887,507,375,132021,121838
3889,507,376,132050,121838
3892,507,375,132060,121852
3894,508,375,132081,121853
3897,509,376,132105,121868
3899,510,375,132130,121874
3902,512,376,132144,121890
3904,514,376,132158,121890
3907,518,376,132180,121896
3909,531,376,132187,121907
3911,542,376,132208,121904
3914,551,376,132220,121918
3916,562,376,132234,121915
3919,573,376,132250,121924
3921,570,376,132269,121934
3924,558,376,132281,121933
3927,538,376,132291,121937
3929,521,376,132311,121937
3932,485,376,132329,121958
3934,472,376,132333,121959
3937,463,376,132347,121961
3939,453,376,132354,121965
3942,448,376,132356,121965
3944,445,375,132382,121981
3947,447,375,132382,121978
3949,451,376,132397,121981
3951,456,376,132405,121981
3954,468,376,132430,121992
3956,475,376,132435,121987
3959,480,376,132435,121999
3961,487,376,132445,122001
3964,492,376,132457,122001
3966,501,376,132471,122008
3969,503,376,132477,122010
3972,509,376,132479,122011
3974,511,376,132479,122022
3977,514,376,132502,122019
3979,516,376,132504,122024
3982,517,376,132504,122024
3984,517,376,132515,122030
3987,518,376,132521,122030
3989,518,376,132523,122033
3991,518,376,132523,122034
3994,519,376,132534,122033
3996,519,376,132543,122033
3999,519,376,132549,122037
4001,519,376,132546,122033
4004,519,376,132542,122057
4006,519,376,132542,122037
4008,520,376,132550,122039
4012,520,376,132548,122047
4014,520,376,132556,122047
4017,520,376,132552,122044
4019,520,376,132552,122041
4022,520,376,132553,122035
4024,520,376,132554,122035
4027,520,376,132556,122040
4029,520,376,132553,122039
4031,520,376,132553,122048
4034,519,376,132556,122049
4036,519,376,132562,122049
4039,519,376,132566,122044
4041,519,376,132566,122051
4044,519,376,132562,122043
4046,519,376,132565,122043
4048,519,376,132561,122042
4051,519,376,132561,122043
4054,519,376,132566,122045
4057,519,376,132575,122045
4059,519,376,132585,122050
4062,519,376,132577,122060
4064,519,376,132577,122053
4067,519,376,132587,122058
4069,519,376,132589,122058
4071,518,376,132600,122053
4074,519,376,132598,122061
4076,519,376,132604,122061
4079,519,376,132604,122064
4081,519,376,132603,122061
4084,519,376,132609,122061
4086,519,376,132609,122062
4088,520,376,132624,122064
4091,520,376,132627,122064
4093,520,376,132642,122075
4097,521,376,132649,122079
4099,521,376,132659,122079
4102,521,376,132659,122083
4104,521,376,132665,122088
4107,521,376,132682,122088
4109,522,376,132682,122091
4111,522,376,132698,122097
4114,522,376,132710,122097
4116,522,376,132712,122101
4119,523,376,132712,122113
4121,523,376,132722,122105
4124,524,376,132732,122105
4126,524,376,132748,122111
4128,525,376,132748,122117
4131,525,376,132738,122117
4133,525,376,132738,122117
4136,526,376,132738,122107
4139,526,376,132732,122100
4142,527,376,132711,122100
4144,527,376,132693,122106
4147,527,376,132693,122072
4149,527,376,132657,122056
4151,528,376,132618,122056
4154,527,376,132527,122030
4156,527,376,132456,122001
4159,528,376,132456,121923
4161,528,376,132380,121923
4164,528,376,132166,121880
4166,527,376,132062,121831
4168,527,376,132062,121719
4171,526,376,131930,121655
4173,525,376,131793,121655
4176,524,376,131660,121603
4178,523,376,131516,121541
4182,522,376,131382,121493
4184,520,376,131257,121437
4187,518,376,131012,121381
4189,517,376,131012,121281
4191,514,376,130899,121281
4194,512,376,130788,121248
4196,510,376,130697,121207
4199,508,376,130605,121174
4201,505,376,130528,121130
4204,503,376,130434,121099
4206,502,376,130374,121075
4208,500,376,130305,121047
4211,498,376,130242,121024
4213,496,376,130187,121008
4216,495,376,130131,120991
4218,494,376,130093,120964
4221,493,376,130054,120952
4224,492,376,130013,120938
4227,492,376,129983,120928
4229,491,376,129944,120913
4231,491,376,129922,120904
4234,490,376,129900,120899
4236,489,376,129887,120891
4239,490,376,129869,120891
4241,490,376,129861,120883
4244,490,376,129859,120885
4246,490,376,129856,120880
4248,490,376,129855,120886
4251,490,376,129854,120887
4253,490,376,129852,120884
4256,490,376,129850,120888
4258,491,376,129856,120892
4261,491,376,129871,120898
4263,491,376,129874,120905
4267,492,376,129882,120917
4269,492,376,129896,120914
4271,492,376,129919,120929
4274,492,376,129941,120933
4276,493,376,129957,120937
4279,493,376,129972,120947
4281,494,376,129989,120958
4284,494,376,130012,120973
4286,495,376,130043,120979
4288,496,376,130062,120988
4291,497,376,130082,120999
4293,497,376,130109,121010
4296,497,376,130141,121015
4298,497,376,130180,121028
4301,498,376,130203,121035
4303,498,376,130232,121049
4306,499,376,130259,121056
4308,499,376,130291,121076
4311,499,376,130327,121082
4314,500,376,130352,121101
4316,500,376,130393,121115
4319,501,376,130429,121133
4321,501,376,130467,121152
4324,501,376,130499,121157
4326,501,376,130540,121172
4328,501,376,130566,121187
4331,502,376,130614,121203
4333,502,376,130646,121219
4336,502,376,130681,121238
4338,502,376,130714,121249
4341,502,376,130750,121267
4343,503,376,130779,121279
4346,503,376,130827,121290
4348,503,376,130869,121320
4350,504,376,130903,121330
4354,504,376,130931,121341
4356,504,376,130956,121350
4359,504,376,130997,121369
4361,505,376,131035,121380
4364,505,376,131066,121391
4366,505,376,131093,121409
4368,506,376,131140,121421
4371,505,376,131165,121430
4373,505,376,131186,121446
4376,506,376,131220,121452
4378,506,376,131255,121462
4381,506,376,131279,121490
4383,506,376,131320,121504
4386,506,376,131348,121510
4388,506,376,131389,121528
4390,506,377,131413,121533
4393,506,376,131443,121545
4396,506,376,131473,121551
4399,506,376,131503,121577
4401,506,376,131536,121583
4404,506,376,131536,121594
4406,506,376,131590,121607
4408,507,376,131621,121607
4411,507,376,131670,121635
4413,506,377,131688,121644
4416,507,376,131726,121656
4418,507,377,131743,121668
4421,507,377,131772,121678
4423,507,376,131787,121680
4426,507,376,131787,121682
4428,507,377,131818,121695
4430,507,376,131835,121695
4433,507,377,131849,121701
4435,507,377,131848,121705
4439,507,376,131848,121698
4441,507,376,131852,121703
4444,507,377,131856,121703
4446,507,377,131842,121700
4448,507,377,131842,121688
4451,507,377,131823,121699
4453,507,377,131795,121699
4456,507,377,131785,121686
4458,507,377,131766,121668
4461,507,377,131766,121659
4463,507,377,131719,121642
4466,508,377,131684,121642
4468,508,377,131656,121620
4470,508,377,131656,121603
4473,508,377,131578,121581
4475,508,377,131543,121581
4478,508,377,131510,121569
4481,508,376,131460,121527
4484,508,377,131409,121509
4486,508,377,131409,121491
4488,508,377,131371,121476
4491,508,377,131293,121451
4493,508,377,131247,121451
4496,508,377,131209,121415
4498,508,377,131209,121398
4501,508,377,131162,121380
4503,509,377,131079,121380
4506,508,377,131055,121372
4508,508,377,131055,121322
4510,508,377,131013,121317
4513,508,377,130937,121304
4515,508,377,130937,121285
4518,507,377,130884,121276
4520,507,377,130859,121276
4524,507,377,130845,121276
4526,507,377,130845,121258
4528,507,377,130820,121248
4531,507,377,130788,121243
4533,507,377,130774,121243
4536,507,377,130774,121233
4538,507,377,130755,121233
4541,507,377,130748,121239
4543,507,377,130748,121219
4546,507,377,130736,121227
4548,508,377,130731,121227
4550,508,377,130727,121223
4553,508,377,130727,121219
4555,508,377,130730,121217
4558,507,377,130719,121217
4560,507,377,130735,121229
4563,508,377,130735,121236
4566,508,377,130742,121236
4568,508,377,130754,121241
4571,508,377,130754,121249
4573,509,377,130768,121255
4576,509,377,130793,121255
4578,509,377,130804,121258
4581,509,377,130804,121273
4583,509,377,130822,121280
4586,510,377,130851,121280
4588,510,377,130851,121296
4590,510,377,130866,121293
4593,510,377,130898,121313
4595,510,377,130898,121309
4598,510,377,130918,121323
4600,510,377,130934,121329
4603,510,377,130948,121329
4605,510,377,130998,121338
4608,511,377,130998,121352
4611,511,377,131049,121352
4613,512,377,131049,121372
4616,512,377,131071,121379
4618,512,377,131097,121392
4621,513,377,131114,121392
4623,513,377,131173,121405
4626,514,377,131173,121421
4628,515,377,131222,121421
4630,515,377,131222,121443
4633,516,377,131247,121452
4635,516,377,131274,121458
4638,515,377,131303,121473
4640,515,377,131332,121487
4643,516,377,131368,121487
4645,516,377,131394,121506
4647,516,377,131431,121521
4651,516,377,131460,121518
4653,516,377,131488,121534
4656,515,377,131545,121541
4658,514,377,131545,121576
4661,513,377,131571,121576
4663,511,377,131594,121577
4666,510,377,131649,121595
4668,508,377,131645,121609
4670,508,377,131681,121615
4673,506,377,131708,121620
4675,505,377,131736,121635
4678,504,377,131767,121641
4680,504,377,131789,121663
4683,504,377,131814,121667
4685,504,377,131830,121677
4687,504,377,131860,121688
4690,504,377,131890,121697
4692,504,377,131918,121706
4696,504,377,131926,121715
4698,505,377,131960,121727
4701,504,377,131986,121735
4703,505,377,132006,121742
4706,504,377,132019,121753
4708,504,377,132047,121763
4710,505,377,132064,121775
4713,505,377,132077,121778
4715,505,377,132114,121791
4718,505,377,132117,121797
4720,506,377,132137,121799
4723,506,377,132160,121803
4725,506,377,132171,121814
4727,506,377,132192,121825
4730,506,377,132207,121822
4732,506,377,132222,121839
4736,506,377,132233,121836
4738,506,377,132252,121843
4741,507,377,132268,121850
4743,507,377,132274,121861
4746,508,377,132288,121866
4748,510,377,132302,121863
4750,511,377,132313,121869
4753,513,377,132324,121866
4755,517,377,132348,121878
4758,530,377,132345,121890
4760,539,377,132356,121883
4763,551,377,132376,121894
4765,567,377,132389,121900
4767,572,377,132395,121907
4770,571,377,132395,121905
4772,562,377,132405,121909
4775,525,377,132418,121911
4777,504,377,132433,121916
4781,489,377,132445,121916
4783,475,377,132451,121914
4786,463,377,132458,121931
4788,450,377,132464,121926
4790,446,377,132478,121936
4793,446,377,132483,121934
4795,448,377,132498,121944
4798,452,377,132499,121948
4800,461,377,132500,121948
4803,466,377,132506,121951
4805,472,377,132517,121952
4807,479,377,132530,121952
4810,490,377,132524,121954
4812,495,377,132523,121958
4815,499,377,132519,121957
4817,503,377,132533,121958
4820,508,377,132537,121961
4823,512,377,132540,121970
4826,514,377,132551,121961
4828,516,377,132545,121971
4830,517,377,132556,121976
4833,517,377,132547,121977
4835,518,377,132556,121970
4838,519,377,132554,121975
4840,519,377,132552,121978
4843,519,377,132553,121976
4845,519,377,132565,121973
4847,519,377,132566,121976
4850,519,377,132571,121980
4852,519,377,132573,121978
4855,519,377,132569,121970
4857,520,377,132576,121976
4860,519,377,132571,121971
4862,520,377,132572,121972
4866,520,377,132567,121969
4868,520,377,132587,121975
4870,520,377,132587,121972
4873,520,377,132569,121971
4875,520,377,132573,121973
4878,519,377,132573,121971
4880,519,377,132573,121969
4883,519,377,132571,121969
4885,519,377,132581,121978
4887,519,377,132574,121969
4890,519,377,132580,121983
4892,519,377,132580,121972
4895,519,378,132571,121971
4897,519,378,132576,121974
4900,518,377,132576,121973
4902,518,378,132581,121979
4905,519,378,132577,121979
4908,519,378,132592,121986
4910,518,377,132588,121981
4913,518,377,132589,121979
4915,519,377,132589,121986
4918,519,378,132605,121992
4920,519,377,132612,121992
4923,519,378,132619,122002
4925,519,377,132623,121990
4927,519,377,132623,121999
4930,520,378,132636,121995
4932,520,378,132640,121995
4935,520,378,132653,122004
4937,520,377,132653,122010
4940,519,377,132658,122008
4942,520,377,132670,122008
4945,520,378,132691,122015
4947,520,378,132701,122025
4950,520,377,132701,122032
4953,520,378,132712,122033
4955,521,378,132731,122033
4958,521,377,132739,122038
4960,521,377,132739,122044
4963,522,378,132747,122040
4965,522,378,132753,122040
4967,522,378,132777,122043
4970,523,377,132785,122052
4972,523,378,132785,122063
4975,523,378,132802,122068
4977,524,378,132813,122068
4980,524,378,132812,122073
4982,525,378,132812,122063
4985,525,378,132817,122068
4987,525,378,132804,122068
4989,525,378,132815,122059
4993,525,378,132797,122056
4995,525,378,132775,122056
4998,525,378,132775,122035
5000,526,378,132744,122017
5003,526,378,132672,122017
5005,526,378,132672,121961
5007,527,378,132617,121924
5010,527,378,132460,121924
5012,527,378,132359,121886
5015,526,378,132254,121787
5017,526,378,132129,121787
5020,525,378,132129,121680
5022,524,378,132002,121626
5025,524,378,131731,121626
5027,523,378,131731,121492
5029,521,378,131584,121436
5032,521,378,131304,121436
5035,519,378,131182,121380
5038,516,378,131182,121283
5040,515,378,130933,121283
5043,511,378,130933,121188
5045,509,378,130802,121158
5047,508,378,130638,121158
5050,505,378,130638,121080
5052,503,378,130555,121039
5055,502,378,130407,121039
5057,500,378,130349,121019
5060,497,378,130349,120966
5062,496,378,130284,120952
5065,495,378,130223,120952
5067,494,378,130130,120932
5069,494,378,130086,120923
5072,492,378,130086,120879
5074,491,378,130049,120868
5078,491,378,129971,120868
5080,490,378,129952,120860
5083,490,378,129952,120843
5085,490,378,129935,120839
5087,490,378,129916,120839
5090,490,378,129908,120842
5092,490,378,129893,120838
5095,490,378,129894,120839
5097,490,378,129894,120838
5100,491,378,129880,120834
5102,491,378,129895,120842
5105,491,378,129895,120846
5107,492,378,129902,120860
5109,492,378,129903,120860
5112,492,378,129917,120862
5114,492,378,129933,120865
5117,492,378,129937,120867
5120,493,378,129957,120886
5123,493,378,129993,120886
5125,494,378,130005,120889
5127,495,378,130005,120901
5130,495,378,130037,120901
5132,495,378,130042,120913
5135,495,378,130076,120921
5137,497,378,130103,120935
5140,497,378,130121,120943
5142,497,378,130152,120958
5145,497,378,130179,120964
5147,497,378,130209,120973
5149,498,378,130230,120996
5152,498,378,130266,120997
5154,499,378,130304,121011
5157,499,378,130340,121026
5159,499,378,130370,121036
5163,499,378,130410,121051
5165,499,378,130444,121064
5167,500,378,130476,121078
5170,500,378,130506,121093
5172,501,378,130538,121115
5175,501,378,130581,121122
5177,501,378,130620,121145
5180,501,378,130662,121157
5182,502,378,130711,121178
5185,502,378,130751,121194
5187,502,378,130791,121206
5189,502,378,130833,121229
5192,503,378,130863,121241
5194,503,378,130902,121253
5197,503,378,130936,121271
5199,504,378,130985,121294
5202,504,378,131022,121308
5204,504,378,131067,121319
5207,504,378,131100,121344
5210,505,378,131142,121352
5212,505,378,131188,121364
5215,505,378,131222,121390
5217,505,378,131258,121397
5220,505,378,131297,121420
5222,505,378,131325,121428
5225,505,378,131365,121449
5227,506,378,131393,121459
5229,505,378,131426,121469
5232,506,378,131470,121482
5234,506,378,131508,121509
5237,506,378,131528,121514
5239,506,378,131566,121528
5242,506,378,131598,121539
5244,507,378,131630,121562
5246,507,378,131681,121569
5250,507,378,131708,121587
5252,507,378,131741,121600
5255,506,378,131767,121613
5257,506,378,131801,121627
5260,506,378,131833,121639
5262,506,378,131874,121655
5265,506,378,131898,121663
5267,507,378,131922,121679
5269,507,378,131959,121692
5272,507,378,131982,121693
5274,507,378,132009,121704
5277,507,378,132017,121721
5279,507,378,132037,121720
5282,507,378,132062,121723
5284,507,378,132070,121735
5286,507,378,132080,121737
5289,507,378,132082,121736
5292,507,378,132079,121742
5295,507,378,132075,121735
5297,507,378,132074,121737
5300,507,378,132054,121726
5302,507,378,132043,121723
5305,507,378,132033,121718
5307,507,378,132003,121711
5309,507,378,131978,121694
5312,507,378,131952,121688
5314,507,378,131920,121670
5317,507,378,131887,121657
5319,508,378,131850,121631
5322,508,378,131850,121616
5324,508,378,131765,121601
5326,508,378,131729,121601
5329,508,378,131683,121558
5331,508,378,131635,121533
5335,508,378,131580,121511
5337,508,379,131536,121485
5340,508,378,131483,121468
5342,508,378,131436,121444
5345,508,378,131436,121420
5347,508,378,131321,121405
5349,508,378,131271,121405
5352,508,379,131227,121362
5354,508,379,131187,121340
5357,508,378,131187,121321
5359,508,378,131097,121305
5362,508,378,131064,121305
5364,508,378,131027,121280
5366,508,378,131027,121260
5369,509,379,130960,121245
5371,509,379,130927,121245
5374,509,379,130909,121232
5377,509,378,130889,121215
5380,508,378,130889,121210
5382,509,378,130840,121202
5385,509,379,130832,121202
5387,509,379,130811,121192
5389,509,378,130811,121183
5392,509,378,130779,121176
5394,509,378,130775,121176
5397,509,378,130769,121186
5399,509,379,130762,121174
5402,509,379,130757,121184
5404,509,379,130757,121179
5406,508,379,130757,121175
5409,508,378,130758,121185
5411,509,379,130769,121185
5414,509,379,130775,121185
5416,508,379,130775,121191
5420,508,378,130782,121206
5422,508,379,130803,121206
5425,508,379,130819,121207
5427,508,379,130819,121216
5429,508,379,130820,121220
5432,508,379,130842,121223
5434,508,379,130842,121235
5437,509,379,130872,121239
5439,509,379,130885,121239
5442,508,379,130910,121247
5444,508,379,130910,121257
5446,509,379,130927,121270
5449,509,379,130967,121274
5451,509,379,130979,121274
5454,509,379,130979,121294
5456,509,379,131032,121294
5459,509,379,131051,121301
5462,509,379,131051,121314
5465,508,379,131081,121327
5467,509,379,131125,121327
5469,509,379,131157,121339
5472,510,379,131184,121364
5474,510,379,131207,121364
5477,510,379,131207,121386
5479,510,379,131233,121394
5482,511,379,131293,121394
5484,511,379,131293,121412
5486,512,379,131331,121426
5489,512,379,131385,121426
5491,512,379,131415,121438
5494,513,379,131415,121463
5496,514,379,131404,121470
5499,515,379,131504,121470
5501,516,379,131532,121482
5505,515,379,131532,121510
5507,515,379,131591,121510
5509,515,379,131622,121528
5512,515,379,131622,121545
5514,516,379,131646,121555
5517,516,379,131701,121555
5519,516,379,131730,121566
5522,516,379,131730,121585
5524,515,379,131752,121596
5526,514,379,131783,121596
5529,514,379,131841,121607
5531,513,379,131863,121621
5534,510,379,131863,121645
5536,509,379,131899,121655
5539,509,379,131933,121655
5541,508,379,131956,121664
5544,507,379,131956,121680
5547,506,379,131981,121684
5549,506,379,132009,121684
5552,505,379,132016,121697
5554,505,379,132045,121708
5557,505,379,132062,121718
5559,505,379,132097,121718
5562,505,379,132124,121727
5564,505,379,132140,121742
5566,505,379,132140,121756
5569,505,379,132160,121760
5571,506,379,132170,121760
5574,506,379,132192,121766
5576,506,379,132208,121771
5579,506,379,132223,121781
5581,506,379,132237,121783
5584,506,379,132271,121793
5586,506,379,132271,121808
5588,506,379,132288,121808
5592,506,379,132285,121812
5594,506,379,132311,121807
5597,506,379,132321,121821
5599,506,379,132348,121829
5602,506,379,132349,121828
5604,507,379,132374,121839
5606,507,379,132378,121839
5609,508,379,132387,121842
5611,509,379,132393,121855
5614,509,379,132418,121857
5616,510,379,132435,121866
5619,511,379,132437,121865
5621,517,379,132455,121871
5624,522,379,132455,121870
5626,530,379,132473,121877
5628,539,379,132481,121887
5632,560,379,132478,121882
5634,569,379,132495,121890
5637,573,379,132495,121892
5639,570,379,132520,121897
5642,558,379,132527,121902
5644,520,379,132539,121901
5646,503,379,132539,121907
5649,486,379,132553,121910
5651,474,379,132553,121911
5654,462,379,132553,121918
5656,453,379,132555,121914
5659,447,379,132567,121917
5661,447,379,132566,121921
5664,450,379,132565,121922
5666,454,379,132584,121921
5668,459,379,132584,121933
5671,472,379,132586,121929
5673,478,379,132589,121926
5677,482,379,132586,121930
5679,491,379,132596,121929
5682,497,379,132581,121926
5684,500,379,132596,121925
5686,505,379,132596,121931
5689,509,379,132596,121928
5691,512,379,132595,121928
5694,515,379,132592,121927
5696,517,379,132593,121940
5699,519,379,132593,121930
5701,519,379,132592,121930
5704,519,379,132592,121936
5706,520,379,132592,121933
5708,520,379,132583,121939
5711,520,379,132588,121932
5713,520,379,132598,121932
5716,520,379,132599,121937
5719,520,379,132602,121934
5722,520,379,132598,121931
5724,521,379,132608,121939
5726,521,379,132615,121935
5729,521,379,132602,121927
5731,521,379,132610,121937
5734,521,379,132613,121942
5736,521,379,132614,121945
5739,521,379,132612,121944
5741,520,379,132629,121944
5744,520,379,132616,121947
5746,520,379,132620,121944
5748,520,379,132636,121941
5751,520,379,132630,121946
5753,519,379,132627,121953
5756,520,379,132636,121949
5758,520,379,132634,121956
5762,520,379,132634,121949
5764,520,379,132632,121950
5766,520,379,132641,121950
5769,519,379,132636,121945
5771,519,379,132634,121952
5774,519,379,132633,121956
5776,519,379,132634,121942
5779,519,379,132642,121957
5781,519,379,132646,121958
5784,519,379,132641,121960
5786,520,379,132660,121958
5788,520,379,132656,121962
5791,520,379,132662,121957
5793,519,379,132661,121966
5796,520,379,132669,121965
5798,520,379,132679,121963
5801,520,379,132679,121967
5804,520,379,132690,121974
5806,520,379,132700,121974
5809,520,379,132720,121979
5811,520,379,132717,121981
5814,520,379,132729,121985
5816,520,379,132735,121990
5819,521,380,132744,121989
5821,521,379,132756,121990
5824,521,379,132756,121992
5826,521,379,132776,122002
5828,521,379,132789,122002
5831,521,379,132805,122015
5833,521,379,132812,122014
5836,522,379,132812,122019
5838,522,379,132831,122020
5841,522,380,132840,122020
5843,523,379,132849,122024
5846,524,379,132849,122027
5849,524,380,132871,122039
5851,525,379,132873,122039
5854,525,380,132884,122041
5856,525,380,132881,122036
5859,525,379,132881,122035
5861,525,379,132861,122035
5864,526,380,132839,122035
5866,526,380,132812,122013
5868,526,379,132812,121994
5871,526,380,132740,121973
5873,527,379,132691,121973
5876,527,379,132626,121947
5878,527,380,132538,121867
5881,527,380,132449,121830
5883,527,380,132449,121777
5885,526,380,132336,121724
5889,526,380,132087,121664
5891,526,380,131949,121664
5894,525,379,131815,121550
5896,524,380,131815,121486
5899,522,379,131671,121427
5901,521,380,131387,121427
5904,520,379,131253,121372
5906,517,379,131253,121265
5908,515,380,131123,121221
5911,512,380,130897,121174
5913,510,380,130897,121140
5916,507,380,130703,121096
5918,506,380,130613,121096
5921,504,380,130542,121065
5923,501,380,130542,120994
5925,499,380,130462,120977
5928,498,380,130330,120977
5931,497,380,130277,120948
5934,495,380,130277,120905
5936,494,380,130174,120905
5939,493,380,130133,120886
5941,492,380,130133,120863
5944,491,380,130092,120842
5946,491,380,130027,120842
5948,490,380,130009,120838
5951,490,380,130009,120816
5953,490,380,129990,120811
5956,490,379,129951,120811
5958,490,380,129952,120808
5961,490,380,129952,120801
5963,490,380,129933,120801
5965,491,380,129925,120802
5968,491,380,129925,120803
5970,491,380,129930,120803
5974,492,380,129931,120803
5976,492,380,129940,120809
5979,492,380,129940,120813
5981,492,380,129954,120819
5984,492,380,129975,120819
5986,492,380,129975,120840
5988,492,380,129988,120850
5991,493,380,130016,120850
5993,493,380,130016,120856
5996,493,380,130028,120859
5998,494,380,130045,120879
6001,494,380,130069,120879
6003,494,380,130113,120875
6005,495,380,130113,120901
6008,495,380,130164,120901
6010,496,380,130164,120915
6013,496,380,130186,120933
6016,497,379,130217,120942
6019,497,380,130244,120942
6021,497,380,130273,120963
6024,498,380,130299,120967
6026,498,380,130335,120979
6028,499,380,130376,120994
6031,499,380,130436,120996
6033,499,380,130436,121034
6036,500,380,130475,121051
6038,500,380,130518,121051
6041,500,380,130548,121071
6043,500,380,130586,121080
6045,501,380,130633,121099
6048,501,380,130676,121110
6050,502,380,130710,121130
6053,502,380,130800,121150
6055,502,380,130800,121189
6059,502,380,130839,121189
6061,503,380,130882,121203
6064,502,380,130931,121220
6066,502,380,130963,121243
6068,503,380,131008,121257
6071,503,380,131059,121272
6073,503,380,131095,121290
6076,503,380,131134,121309
6078,503,380,131175,121318
6081,503,380,131214,121343
6083,504,380,131243,121352
6085,504,380,131298,121367
6088,504,380,131320,121387
6090,504,380,131365,121403
6093,505,380,131405,121412
6095,505,380,131438,121434
6098,505,380,131470,121446
6100,505,380,131494,121457
6104,505,380,131523,121479
6106,505,380,131559,121479
6108,505,380,131589,121496
6111,505,380,131620,121515
6113,505,380,131649,121523
6116,505,380,131688,121547
6118,505,380,131716,121552
6121,506,380,131753,121567
6123,506,380,131778,121579
6125,506,380,131809,121589
6128,506,380,131848,121605
6130,506,380,131887,121621
6133,506,380,131915,121631
6135,506,380,131957,121639
6138,506,380,131972,121654
6140,506,380,131997,121672
6144,506,380,132033,121673
6146,506,380,132059,121692
6148,506,380,132073,121705
6151,506,380,132102,121703
6153,506,380,132124,121707
6156,506,380,132126,121719
6158,506,380,132145,121720
6161,506,380,132146,121718
6163,507,380,132147,121727
6165,507,380,132146,121730
6168,507,380,132128,121717
6170,506,380,132118,121711
6173,506,380,132105,121712
6175,507,380,132078,121703
6178,507,380,132066,121693
6180,507,380,132051,121684
6183,507,380,132016,121668
6185,507,380,131981,121661
6188,507,380,131950,121647
6191,507,380,131914,121621
6193,508,380,131875,121608
6196,508,380,131820,121587
6198,508,380,131780,121566
6201,508,380,131725,121540
6203,508,380,131678,121517
6205,508,380,131626,121491
6208,508,380,131581,121476
6210,508,380,131514,121445
6213,508,380,131459,121424
6215,507,380,131423,121408
6218,508,380,131368,121387
6220,508,380,131314,121364
6223,508,380,131257,121345
6225,508,380,131217,121317
6227,509,380,131176,121306
6231,509,380,131130,121291
6233,509,380,131084,121277
6236,508,380,131048,121256
6238,508,380,131022,121243
6241,508,380,130994,121231
6243,508,380,130963,121220
6245,508,380,130934,121211
6248,508,380,130917,121209
6250,508,380,130891,121185
6253,507,380,130872,121181
6255,507,380,130850,121178
6258,507,380,130844,121170
6260,508,380,130829,121170
6263,508,380,130829,121162
6265,508,380,130810,121167
6267,508,380,130806,121167
6270,508,380,130802,121167
6273,508,380,130808,121163
6276,508,380,130808,121167
6278,508,380,130795,121164
6281,508,380,130796,121164
6283,508,380,130806,121177
6285,508,380,130807,121175
6288,508,380,130812,121178
6290,508,380,130812,121182
6293,508,380,130825,121183
6295,509,380,130841,121190
6298,509,380,130841,121203
6300,509,380,130862,121203
6303,509,380,130879,121203
6305,508,380,130894,121219
6307,508,380,130904,121227
6310,508,380,130925,121223
6312,508,380,130925,121240
6316,508,380,130957,121246
6318,508,380,130974,121244
6321,508,380,130974,121249
6323,509,380,131015,121266
6325,509,380,131040,121266
6328,509,380,131063,121285
6330,509,380,131063,121292
6333,509,380,131108,121303
6335,510,380,131128,121303
6338,510,380,131164,121314
6340,509,380,131186,121330
6343,509,380,131207,121345
6345,509,380,131240,121354
6347,509,380,131257,121354
6350,510,380,131288,121368
6352,510,380,131288,121381
6355,510,380,131323,121396
6358,511,380,131378,121396
6361,510,380,131409,121418
6363,511,380,131409,121431
6365,511,380,131440,121447
6368,512,381,131493,121447
6370,512,380,131529,121455
6373,512,380,131562,121483
6375,513,380,131562,121499
6378,514,380,131589,121510
6380,515,381,131650,121510
6383,516,380,131678,121520
6385,515,380,131678,121539
6387,515,380,131702,121547
6390,515,381,131757,121547
6392,515,381,131792,121569
6395,515,381,131822,121582
6397,515,380,131822,121597
6401,516,380,131869,121607
6403,516,380,131898,121607
6405,515,380,131923,121622
6408,514,381,131923,121635
6410,513,380,131958,121648
6413,512,381,131993,121648
6415,511,380,132027,121658
6418,509,380,132027,121680
6420,508,381,132066,121680
6423,507,381,132087,121687
6425,506,380,132087,121700
6427,506,380,132103,121714
6430,506,381,132149,121714
6432,506,381,132163,121721
6435,506,381,132163,121743
6437,506,380,132190,121751
6440,506,381,132227,121751
6443,506,381,132254,121756
6445,506,381,132264,121767
6448,506,381,132264,121785
6450,506,381,132288,121780
6453,506,381,132320,121780
6455,506,381,132336,121790
6458,506,381,132336,121803
6460,506,380,132359,121809
6463,507,381,132369,121809
6465,507,380,132405,121818
6467,507,381,132416,121827
6470,507,381,132416,121829
6472,507,381,132428,121835
6475,507,381,132453,121835
6477,507,381,132461,121837
6480,507,381,132461,121849
6482,507,381,132474,121855
6484,508,381,132483,121855
6488,508,381,132493,121861
6490,508,381,132505,121867
6493,508,381,132509,121871
6495,509,381,132529,121870
6498,510,381,132541,121874
6500,511,381,132555,121887
6503,513,381,132555,121886
6505,524,381,132565,121889
6507,533,381,132574,121889
6510,543,381,132576,121899
6512,554,381,132587,121896
6515,562,381,132592,121901
6517,573,381,132594,121894
6520,567,381,132613,121902
6522,551,381,132614,121906
6524,534,381,132614,121904
6528,515,381,132624,121904
6530,490,381,132621,121911
6533,474,381,132642,121914
6535,456,381,132647,121923
6538,450,381,132645,121915
6540,446,381,132644,121913
6543,446,381,132651,121924
6545,448,381,132647,121918
6547,452,381,132654,121920
6550,458,381,132651,121924
6552,470,381,132646,121926
6555,475,381,132655,121926
6557,481,381,132662,121924
6560,487,381,132675,121925
6562,496,381,132676,121934
6564,500,381,132673,121926
6567,504,381,132668,121928
6569,507,381,132672,121926
6573,511,381,132678,121927
6575,513,381,132667,121930
6578,515,381,132676,121932
6580,517,381,132677,121932
6583,518,381,132671,121931
6585,518,381,132678,121927
6587,519,381,132693,121931
6590,520,381,132698,121938
6592,520,381,132704,121943
6595,520,381,132700,121942
6597,520,381,132688,121941
6600,520,381,132700,121941
6602,520,381,132683,121937
6604,520,381,132696,121939
6607,520,381,132700,121942
6609,520,381,132696,121943
6612,520,381,132698,121945
6615,520,381,132702,121942
6618,520,381,132693,121942
6620,520,381,132685,121936
6623,520,381,132692,121941
6625,520,381,132693,121935
6627,520,381,132689,121940
6630,520,381,132694,121937
6632,520,381,132699,121940
6635,519,381,132691,121937
6637,519,381,132698,121952
6640,519,381,132693,121945
6642,519,381,132699,121949
6644,519,381,132703,121945
6647,519,381,132700,121944
6649,519,381,132693,121946
6652,520,381,132698,121947
6654,520,381,132703,121951
6658,520,381,132709,121950
6660,519,381,132717,121956
6663,519,381,132713,121949
6665,519,381,132718,121959
6667,519,381,132735,121951
6670,519,381,132741,121959
6672,519,381,132748,121961
6675,519,381,132741,121968
6677,519,381,132745,121971
6680,520,381,132761,121970
6682,520,381,132767,121971
6684,520,381,132777,121974
6687,520,381,132789,121985
6689,520,381,132799,121987
6692,520,381,132809,121965
6694,520,381,132825,121988
6697,520,381,132835,122000
6700,520,381,132850,122006
6703,521,381,132861,122004
6705,521,381,132874,122010
6707,522,381,132878,122012
6710,522,381,132895,122017
6712,522,381,132902,122017
6715,523,381,132915,122017
6717,523,381,132925,122030
6720,523,381,132925,122032
6722,524,381,132941,122034
6724,524,381,132950,122034
6727,524,381,132970,122049
6729,525,381,132976,122040
6732,525,381,132972,122048
6734,525,381,132982,122049
6737,526,381,132979,122051
6739,526,381,132977,122044
6743,526,381,132977,122036
6745,527,381,132945,122038
6747,527,381,132932,122038
6750,527,381,132910,122013
6752,527,381,132873,121994
6755,527,381,132873,121967
6757,527,381,132756,121931
6760,527,381,132685,121931
6762,527,381,132600,121855
6764,527,381,132600,121811
6767,527,381,132378,121757
6769,527,381,132255,121757
6772,526,381,132120,121646
6774,524,381,131987,121584
6777,523,381,131987,121522
6779,522,381,131687,121464
6782,521,381,131545,121464
6785,518,381,131399,121345
6787,516,381,131399,121287
6790,514,381,131134,121244
6792,513,381,131024,121244
6795,511,381,130921,121187
6797,508,381,130827,121111
6800,507,381,130726,121083
6802,504,381,130726,121043
6804,502,381,130643,121010
6807,500,381,130495,120991
6809,499,381,130432,120991
6812,496,381,130369,120932
6814,495,381,130369,120911
6817,494,381,130323,120896
6819,493,381,130227,120896
6822,492,381,130181,120877
6824,491,381,130181,120841
6827,490,381,130150,120837
6830,490,381,130083,120818
6832,490,381,130083,120812
6835,490,381,130034,120806
6837,490,381,130024,120806
6840,489,381,130012,120806
6842,489,381,130012,120802
6844,490,381,130005,120800
6847,490,381,129996,120802
6849,490,381,129988,120802
6852,490,381,129988,120797
6854,491,381,129989,120797
6857,491,381,130001,120804
6859,491,381,130001,120810
6862,492,381,130013,120815
6864,492,381,130033,120815
6866,492,381,130051,120833
6870,493,381,130051,120836
6872,493,381,130061,120848
6875,493,381,130092,120848
6877,494,381,130112,120853
6880,494,381,130112,120868
6882,494,381,130151,120868
6884,494,381,130173,120877
6887,495,381,130173,120895
6889,495,381,130205,120907
6892,496,382,130251,120907
6894,496,381,130281,120920
6897,496,382,130281,120933
6899,496,381,130313,120949
6902,497,381,130370,120949
6904,497,382,130370,120971
6906,498,381,130409,120985
6909,498,381,130467,121004
6912,499,382,130467,121015
6915,499,381,130545,121015
6917,499,381,130576,121030
6920,500,382,130576,121062
6922,500,382,130617,121084
6924,501,382,130660,121084
6927,501,382,130744,121095
6929,501,381,130784,121108
6932,501,381,130784,121149
6934,501,382,130827,121171
6937,501,382,130902,121171
6939,501,381,130947,121184
6942,502,381,130947,121218
6944,502,381,130988,121235
6946,503,382,131026,121235
6949,503,382,131069,121256
6951,503,382,131116,121273
6955,503,382,131151,121286
6957,503,382,131205,121308
6960,504,382,131277,121319
6962,504,382,131316,121344
6964,504,382,131316,121373
6967,504,382,131357,121394
6969,504,382,131390,121394
6972,504,382,131439,121400
6974,505,382,131474,121419
6977,505,381,131503,121431
6979,505,382,131540,121450
6982,505,382,131616,121467
6984,505,382,131645,121475
6986,506,382,131645,121499
6989,505,382,131679,121499
6991,505,382,131706,121517
6994,505,382,131749,121529
6996,506,382,131790,121544
7000,506,382,131820,121560
7002,506,382,131853,121569
7004,506,382,131879,121586
7007,506,382,131912,121603
7009,506,382,131947,121619
7012,506,382,131977,121632
7014,507,382,132006,121646
7017,507,382,132040,121661
7019,507,382,132073,121671
7022,507,382,132109,121679
7024,507,382,132146,121695
7026,508,382,132169,121706
7029,507,382,132182,121722
7031,507,382,132206,121721
7034,507,382,132239,121731
7036,507,382,132235,121734
7040,507,382,132249,121742
7042,508,382,132265,121730
7044,508,382,132261,121740
7047,508,382,132270,121745
7049,508,382,132269,121737
7052,508,382,132245,121733
7054,508,382,132236,121726
7057,508,382,132217,121721
7059,508,382,132200,121719
7062,508,382,132177,121713
7064,508,382,132157,121692
7066,508,382,132121,121685
7069,508,382,132097,121663
7071,508,382,132060,121653
7074,508,382,132019,121633
7076,508,382,131976,121622
7079,508,382,131930,121600
7081,508,382,131879,121577
7084,508,382,131836,121560
7087,508,382,131787,121529
7089,508,382,131732,121506
7092,508,382,131692,121487
7094,508,382,131642,121466
7097,508,382,131586,121442
7099,508,382,131535,121421
7102,508,382,131478,121396
7104,508,382,131422,121383
7106,508,382,131379,121356
7109,508,382,131320,121333
7111,509,382,131276,121317
7114,509,382,131226,121300
7116,509,382,131185,121284
7119,509,382,131161,121263
7121,509,382,131125,121255
7123,509,382,131091,121244
7127,509,382,131062,121232
7129,509,382,131035,121221
7132,509,382,131008,121212
7134,509,382,130978,121197
7137,509,382,130956,121190
7139,509,382,130933,121184
7142,508,382,130937,121180
7144,508,382,130913,121175
7146,508,382,130905,121167
7149,509,382,130895,121164
7151,509,382,130882,121161
7154,509,382,130882,121166
7156,509,382,130878,121173
7159,509,382,130880,121171
7161,509,382,130878,121172
7163,509,382,130880,121175
7166,509,382,130889,121175
7169,509,382,130887,121159
7172,509,382,130897,121184
7174,509,382,130905,121176
7177,508,382,130912,121190
7179,509,382,130915,121197
7182,509,382,130931,121204
7184,509,382,130948,121212
7186,509,382,130970,121212
7189,509,382,130978,121217
7191,509,382,130992,121227
7194,509,382,131010,121226
7196,509,382,131017,121231
7199,509,382,131017,121237
7201,509,382,131052,121250
7203,509,382,131074,121250
7206,509,382,131109,121269
7208,509,382,131126,121272
7212,509,382,131141,121283
7214,509,382,131164,121290
7217,509,382,131181,121295
7219,509,382,131211,121307
7222,509,382,131211,121318
7224,509,382,131260,121334
7226,509,382,131292,121334
7229,509,382,131328,121361
7231,510,382,131347,121363
7234,510,382,131347,121371
7236,510,382,131410,121383
7239,511,382,131432,121383
7241,511,382,131458,121417
7243,511,382,131458,121420
7246,511,382,131517,121435
7248,511,382,131547,121435
7251,511,382,131589,121460
7254,511,382,131617,121469
7257,511,382,131617,121489
7259,511,382,131671,121489
7262,512,382,131707,121494
7264,513,382,131732,121520
7266,514,382,131732,121540
7269,515,382,131791,121544
7271,516,382,131819,121544
7274,515,382,131852,121555
7276,515,382,131877,121573
7279,514,382,131906,121597
7281,514,382,131906,121603
7283,515,382,131933,121614
7286,516,382,131988,121626
7288,516,382,132012,121626
7291,516,383,132041,121643
7293,515,382,132041,121657
7297,514,382,132056,121665
7299,513,383,132110,121665
7302,512,383,132145,121666
7304,510,383,132145,121692
7306,509,383,132146,121703
7309,508,383,132199,121711
7311,507,383,132199,121716
7314,506,383,132247,121733
7316,506,383,132265,121733
7319,506,383,132296,121742
7321,505,383,132296,121757
7323,505,383,132315,121769
7326,505,383,132346,121769
7328,505,382,132366,121773
7331,504,383,132388,121782
7333,504,383,132399,121782
7336,504,383,132399,121793
7339,505,383,132420,121794
7342,505,383,132446,121794
7344,505,383,132446,121821
7346,506,383,132466,121817
7349,506,383,132496,121817
7351,505,383,132513,121833
7354,505,383,132513,121839
7356,505,383,132547,121839
7359,506,383,132547,121847
7361,506,383,132516,121860
7363,506,383,132570,121860
7366,506,383,132570,121866
7368,507,383,132589,121868
7371,507,383,132607,121868
7373,507,383,132627,121874
7376,507,383,132627,121884
7378,507,383,132635,121884
7382,509,383,132635,121892
7384,509,383,132651,121894
7386,510,383,132654,121894
7389,512,383,132680,121899
7391,515,383,132681,121909
7394,526,383,132681,121903
7396,538,383,132701,121915
7399,547,383,132696,121915
7401,558,383,132704,121913
7403,566,383,132704,121917
7406,573,383,132708,121921
7408,566,383,132722,121921
7411,549,383,132732,121923
7413,528,383,132732,121930
7416,494,383,132743,121929
7418,479,383,132761,121929
7421,468,383,132746,121933
7424,459,383,132762,121932
7426,452,383,132762,121940
7429,447,383,132755,121941
7431,448,383,132765,121941
7434,451,383,132770,121940
7436,455,383,132773,121950
7439,459,383,132777,121942
7441,466,383,132779,121950
7443,473,383,132786,121948
7446,480,383,132786,121950
7448,491,383,132791,121946
7451,495,383,132797,121953
7453,499,383,132797,121955
7456,502,383,132793,121955
7458,510,383,132806,121953
7461,513,383,132806,121952
7463,514,383,132800,121955
7465,516,383,132814,121957
7469,517,383,132815,121954
7471,518,382,132804,121955
7474,518,383,132805,121965
7476,518,382,132810,121949
7479,519,382,132806,121954
7481,520,383,132822,121959
7483,520,382,132815,121963
7486,520,382,132802,121962
7488,521,383,132804,121955
7491,521,382,132812,121961
7493,520,382,132814,121958
7496,520,382,132813,121956
7498,521,382,132799,121956
7501,520,382,132806,121959
7503,520,382,132802,121950
7505,520,382,132801,121962
7508,520,382,132800,121957
7511,520,383,132815,121962
7514,519,382,132804,121959
7516,519,382,132805,121963
7519,519,382,132808,121966
7521,519,382,132800,121959
7523,519,382,132808,121961
7526,519,383,132810,121957
7528,519,383,132807,121957
7531,519,383,132822,121951
7533,519,383,132819,121961
7536,519,382,132820,121967
7538,519,383,132821,121958
7541,519,382,132828,121961
7543,519,382,132819,121963
7545,519,383,132818,121969
7548,519,382,132830,121958
7550,518,383,132839,121970
7554,518,382,132843,121970
7556,518,383,132845,121972
7559,519,383,132850,121969
7561,519,383,132849,121971
7563,519,383,132865,121984
7566,519,383,132864,121987
7568,519,383,132876,121991
7571,519,382,132879,121996
7573,519,383,132894,122003
7576,519,383,132908,121997
7578,519,382,132914,122002
7581,519,383,132930,121999
7583,519,383,132946,122010
7585,519,383,132954,122020
7588,520,383,132968,122017
7590,520,383,132978,122022
7593,520,383,132981,122031
7596,521,383,133004,122031
7599,521,383,133017,122036
7601,521,383,133027,122047
7603,522,383,133045,122041
7606,522,383,133048,122052
7608,522,383,133058,122063
7611,523,383,133064,122034
7613,523,383,133096,122070
7616,524,383,133092,122077
7618,524,383,133106,122083
7621,524,383,133106,122077
7623,525,383,133117,122083
7625,525,383,133120,122075
7628,526,383,133116,122083
7630,526,383,133104,122077
7633,526,383,133097,122066
7635,526,383,133073,122061
7639,527,383,133039,122049
7641,527,383,133010,122033
7643,527,383,132960,122033
7646,527,383,132901,121983
7648,527,383,132829,121931
7651,527,383,132737,121891
7653,527,383,132636,121841
7656,527,383,132522,121790
7658,526,383,132401,121739
7661,525,383,132401,121674
7663,524,383,132119,121615
7665,524,383,131966,121615
7668,522,383,131816,121491
7670,520,383,131666,121428
7673,519,383,131666,121365
7675,517,383,131378,121310
7678,516,383,131249,121310
7681,512,383,131139,121217
7683,511,383,131022,121170
7686,508,383,130921,121132
7688,506,383,130921,121089
7691,504,383,130721,121055
7693,501,383,130656,121024
7696,499,383,130656,120986
7698,498,383,130518,120965
7701,497,383,130448,120965
7703,494,383,130411,120923
7705,493,383,130411,120905
7708,492,383,130307,120887
7710,492,383,130260,120887
7713,491,383,130220,120864
7715,490,383,130191,120840
7718,490,383,130162,120837
7720,489,383,130162,120825
7723,489,383,130139,120812
7726,489,383,130084,120803
7728,489,383,130084,120803
7731,489,383,130076,120805
7733,488,383,130076,120807
7736,489,383,130076,120807
7738,489,383,130059,120807
7741,489,383,130068,120799
7743,490,383,130063,120814
7745,491,383,130063,120813
7748,491,383,130082,120820
7750,491,383,130094,120820
7753,492,383,130102,120827
7755,493,383,130102,120838
7758,493,383,130112,120847
7760,494,383,130147,120847
7762,494,383,130165,120852
7766,495,383,130186,120862
7768,495,383,130186,120878
7771,495,383,130224,120878
7773,496,383,130249,120883
7776,496,383,130271,120895
7778,496,383,130271,120915
7781,496,384,130287,120920
7783,497,384,130343,120920
7785,497,384,130377,120928
7788,498,384,130414,120952
7790,498,384,130429,120952
7793,498,384,130429,120979
7795,498,384,130467,121000
7798,498,384,130528,121000
7800,499,384,130528,121021
7802,500,384,130573,121034
7805,500,384,130644,121034
7808,500,384,130654,121055
7811,500,384,130729,121087
7813,500,384,130761,121087
7816,500,384,130761,121117
7818,501,384,130806,121135
7821,501,384,130884,121135
7823,501,384,130884,121174
7825,502,384,130928,121184
7828,503,384,131013,121184
7830,503,384,131052,121206
7833,503,384,131052,121235
7835,503,384,131092,121252
7838,503,384,131121,121252
7840,503,384,131217,121268
7842,504,384,131217,121298
7845,504,384,131281,121298
7847,504,384,131316,121318
7851,505,384,131316,121353
7853,505,384,131354,121367
7856,505,384,131436,121367
7858,505,384,131474,121385
7861,505,384,131474,121415
7863,505,384,131509,121425
7865,506,384,131541,121425
7868,506,384,131612,121444
7870,506,384,131647,121465
7873,506,384,131647,121478
7875,506,384,131682,121498
7878,506,384,131736,121498
7880,506,384,131765,121511
7882,506,384,131765,121542
7885,506,384,131796,121545
7887,506,384,131825,121545
7890,506,384,131855,121562
7892,506,384,131888,121573
7896,507,384,131927,121589
7898,507,384,131957,121596
7901,507,384,132020,121617
7903,506,384,132020,121639
7905,507,384,132058,121639
7908,506,384,132074,121650
7910,507,384,132111,121663
7913,506,384,132150,121673
7915,507,384,132175,121680
7918,507,384,132182,121688
7920,507,384,132205,121701
7922,507,384,132225,121707
7925,507,384,132240,121706
7927,507,384,132237,121716
7930,507,384,132249,121715
7932,508,384,132262,121719
7936,508,384,132267,121726
7938,508,384,132268,121716
7941,508,384,132260,121712
7943,508,384,132241,121707
7945,508,384,132229,121707
7948,507,384,132217,121708
7950,507,384,132194,121697
7953,507,384,132173,121688
7955,507,384,132143,121668
7958,507,384,132121,121654
7960,507,384,132073,121644
7962,507,384,132056,121625
7965,508,384,132026,121606
7967,508,384,131973,121587
7970,508,384,131926,121572
7972,508,384,131876,121551
7975,508,384,131837,121527
7977,508,384,131783,121507
7981,507,384,131736,121491
7983,508,384,131678,121457
7985,508,384,131633,121440
7988,508,384,131580,121422
7990,508,384,131529,121404
7993,507,384,131489,121377
7995,507,384,131442,121356
7998,507,384,131403,121340
8000,507,384,131354,121321
8002,508,384,131316,121300
8005,508,383,131266,121289
8007,508,384,131228,121276
8010,508,384,131197,121262
8012,508,384,131166,121247
8015,508,384,131143,121241
8017,508,384,131111,121231
8020,508,384,131086,121213
8023,509,384,131061,121210
8025,509,383,131046,121208
8028,509,383,131035,121194
8030,509,384,131008,121190
8033,509,384,130994,121187
8035,509,384,130984,121188
8038,509,383,130982,121186
8040,509,383,130979,121179
8042,509,384,130969,121185
8045,509,384,130966,121180
8047,509,383,130964,121187
8050,509,383,130962,121184
8052,509,384,130965,121188
8055,509,384,130971,121192
8057,509,384,130963,121193
8060,509,384,130982,121201
8062,509,384,130990,121204
8065,509,384,131011,121213
8068,509,384,131004,121215
8070,509,384,131017,121217
8073,509,384,131036,121229
8075,509,384,131055,121224
8078,509,384,131059,121244
8080,509,384,131082,121247
8082,509,384,131096,121256
8085,509,384,131107,121260
8087,509,384,131127,121265
8090,509,384,131150,121274
8092,510,384,131172,121282
8095,510,384,131200,121295
8097,510,384,131220,121306
8100,510,384,131239,121305
8102,510,384,131264,121315
8104,510,384,131282,121318
8108,510,384,131309,121334
8110,510,384,131335,121336
8113,510,384,131335,121354
8115,510,384,131380,121366
8118,510,384,131407,121366
8120,510,384,131448,121396
8122,509,384,131471,121398
8125,509,384,131502,121408
8127,509,384,131537,121416
8130,509,384,131566,121435
8132,509,384,131590,121443
8135,510,384,131620,121454
8137,511,384,131643,121467
8140,511,384,131643,121478
8142,512,384,131703,121487
8144,512,384,131730,121505
8147,512,384,131766,121516
8150,512,384,131791,121523
8153,513,384,131826,121537
8155,513,384,131848,121548
8158,513,384,131848,121551
8160,514,384,131903,121575
8162,516,384,131929,121575
8165,516,384,131964,121591
8167,516,384,131984,121598
8170,515,384,132014,121622
8172,514,384,132014,121627
8175,514,384,132068,121640
8177,515,384,132093,121651
8180,515,384,132093,121663
8182,516,384,132141,121670
8184,516,384,132166,121670
8187,515,384,132188,121693
8189,514,384,132188,121695
8193,513,384,132233,121701
8195,512,384,132252,121701
8198,511,384,132271,121715
8200,509,384,132296,121731
8202,509,384,132317,121731
8205,507,384,132333,121747
8207,506,384,132333,121756
8210,505,384,132373,121762
8212,505,384,132388,121762
8215,505,384,132420,121776
8217,505,384,132420,121786
8220,505,384,132431,121794
8222,505,384,132464,121807
8224,505,384,132464,121807
8227,505,384,132496,121814
8229,505,384,132513,121814
8232,505,384,132536,121816
8235,505,384,132536,121829
8238,505,384,132566,121840
8240,505,384,132576,121840
8242,505,384,132600,121846
8245,506,384,132615,121854
8247,506,384,132624,121854
8250,506,384,132624,121860
8252,506,384,132637,121871
8255,506,384,132657,121871
8257,506,384,132657,121881
8260,506,384,132677,121888
8262,507,384,132691,121888
8264,507,384,132712,121889
8267,507,384,132714,121904
8269,507,384,132720,121904
8272,508,384,132720,121899
8274,509,384,132733,121908
8278,509,384,132740,121908
8280,511,384,132740,121913
8282,514,384,132760,121917
8285,517,384,132767,121917
8287,522,384,132777,121917
8290,539,384,132777,121926
8292,547,384,132783,121926
8295,564,384,132783,121928
8297,572,384,132792,121938
8300,573,384,132800,121938
8302,558,385,132800,121940
8304,535,384,132812,121943
8307,509,385,132811,121950
8309,489,385,132811,121943
8312,473,384,132813,121946
8314,462,385,132817,121941
8317,455,384,132818,121941
8320,449,385,132834,121946
8322,446,384,132834,121949
8325,447,385,132830,121949
8327,449,384,132834,121951
8330,454,385,132834,121953
8332,466,384,132837,121955
8335,472,384,132841,121955
8337,476,384,132841,121950
8340,486,384,132841,121957
8342,490,385,132850,121957
8344,495,384,132850,121959
8347,503,384,132853,121960
8349,507,384,132849,121968
8352,511,385,132849,121958
8354,513,385,132855,121964
8357,515,385,132857,121964
8359,516,385,132856,121962
8361,517,385,132856,121964
8365,517,385,132859,121965
8367,518,385,132858,121967
8370,518,385,132861,121968
8372,519,385,132861,121961
8375,519,385,132868,121961
8377,519,385,132859,121962
8380,520,385,132881,121955
8382,520,385,132847,121963
8384,520,385,132863,121960
8387,520,385,132862,121956
8389,521,385,132857,121956
8392,520,385,132869,121961
8394,520,385,132860,121956
8397,520,384,132860,121962
8399,520,385,132854,121962
8401,520,385,132856,121961
8404,520,385,132862,121959
8407,520,385,132858,121954
8410,520,385,132855,121963
8412,520,385,132866,121963
8415,520,385,132870,121966
8417,520,385,132869,121959
8420,520,385,132866,121964
8422,520,385,132864,121957
8424,519,385,132855,121957
8427,519,385,132863,121964
8429,519,385,132856,121956
8432,519,385,132855,121965
8434,519,385,132873,121957
8437,520,385,132872,121965
8439,520,385,132875,121965
8441,520,385,132879,121967
8444,520,385,132881,121965
8446,520,385,132883,121972
8450,520,385,132891,121971
8452,520,385,132887,121975
8455,520,385,132890,121974
8457,520,385,132889,121981
8460,520,385,132899,121984
8462,520,385,132911,121978
8464,520,385,132927,121984
8467,520,385,132936,121998
8469,520,385,132946,121996
8472,520,385,132960,121999
8474,521,385,132973,122005
8477,521,385,132978,122012
8479,521,385,132978,122011
8481,521,385,132996,122009
8484,521,385,133006,122016
8486,521,385,133018,122029
8489,521,385,133041,122026
8492,521,385,133055,122043
8495,522,385,133069,122041
8497,523,385,133082,122049
8500,523,385,133101,122055
8502,523,385,133110,122066
8504,523,385,133130,122066
8507,523,385,133126,122070
8509,523,385,133143,122079
8512,524,385,133159,122080
8514,525,385,133172,122085
8517,525,385,133189,122091
8519,525,385,133189,122087
8521,526,385,133185,122086
8524,526,385,133188,122085
8526,526,385,133169,122082
8529,526,385,133159,122079
8531,526,385,133130,122064
8535,526,385,133105,122058
8537,527,385,133069,122032
8540,527,385,133015,122004
8542,526,385,132948,121971
8544,526,385,132866,121925
8547,526,385,132776,121889
8549,526,385,132664,121842
8552,526,385,132543,121786
8554,525,385,132417,121727
8557,525,385,132272,121673
8559,524,385,132137,121610
8561,523,385,131985,121548
8564,521,385,131838,121489
8566,519,386,131696,121418
8569,517,386,131542,121365
8571,515,386,131403,121312
8574,513,386,131269,121259
8577,509,386,131165,121211
8580,508,386,131052,121171
8582,506,386,130955,121132
8584,504,386,130864,121092
8587,501,386,130787,121058
8589,500,386,130708,121030
8592,498,386,130708,121002
8594,496,386,130579,120978
8597,496,386,130515,120978
8599,494,386,130462,120938
8601,493,386,130413,120913
8604,492,386,130362,120890
8606,491,386,130362,120879
8609,491,386,130296,120868
8611,491,386,130259,120854
8614,490,386,130259,120854
8616,490,386,130203,120836
8620,490,386,130183,120836
8622,490,386,130178,120831
8624,490,386,130157,120823
8627,490,386,130156,120821
8629,490,386,130156,120821
8632,490,386,130139,120820
8634,491,386,130133,120827
8637,491,386,130133,120834
8639,491,386,130143,120830
8641,492,386,130154,120830
8644,492,386,130169,120845
8646,492,386,130169,120854
8649,493,386,130184,120855
8651,493,386,130196,120855
8654,494,386,130214,120861
8656,494,386,130236,120880
8659,494,386,130250,120889
8662,495,386,130272,120893
8664,495,386,130286,120893
8667,496,386,130309,120911
8669,496,386,130309,120920
8672,496,386,130342,120930
8674,497,386,130385,120930
8677,497,386,130414,120944
8679,498,386,130436,120965
8681,498,386,130436,120974
8684,498,386,130494,120982
8686,499,386,130532,120982
8689,499,385,130554,121008
8691,499,386,130554,121022
8694,499,386,130597,121033
8696,499,386,130665,121033
8699,499,385,130705,121052
8701,500,385,130705,121082
8704,500,385,130745,121091
8707,500,385,130824,121091
8709,501,385,130861,121113
8712,501,385,130900,121132
8714,502,385,130900,121153
8717,502,385,130976,121168
8719,502,385,131012,121168
8721,502,385,131063,121193
8724,502,385,131101,121226
8726,502,385,131137,121226
8729,503,385,131137,121264
8731,503,385,131181,121282
8734,503,385,131260,121282
8736,503,385,131260,121319
8739,504,385,131315,121332
8741,504,385,131375,121332
8743,504,385,131409,121342
8747,504,385,131446,121366
8749,504,385,131481,121366
8752,504,385,131481,121401
8754,504,385,131511,121416
8757,505,385,131576,121416
8759,505,385,131576,121443
8761,505,385,131624,121453
8764,505,385,131674,121453
8766,505,385,131674,121477
8769,505,385,131704,121486
8771,505,385,131736,121499
8774,505,385,131757,121499
8776,505,385,131828,121519
8779,505,385,131828,121548
8781,505,385,131878,121548
8783,505,385,131909,121554
8786,506,385,131909,121577
8788,506,385,131941,121590
8792,507,385,132001,121590
8794,507,385,132032,121599
8797,507,385,132032,121627
8799,507,385,132070,121629
8801,507,385,132087,121629
8804,507,385,132146,121651
8806,507,385,132174,121668
8809,506,385,132174,121680
8811,506,385,132204,121680
8814,507,385,132239,121684
8816,507,385,132259,121704
8819,507,385,132259,121708
8821,507,385,132268,121710
8823,507,385,132278,121710
8826,507,385,132282,121718
8828,507,385,132280,121712
8832,507,385,132279,121711
8834,507,385,132274,121716
8837,507,385,132253,121705
8839,507,385,132237,121709
8841,507,386,132237,121691
8844,507,385,132221,121691
8846,507,385,132197,121674
8849,508,385,132185,121674
8851,508,385,132158,121661
8854,507,385,132124,121644
8856,507,386,132072,121635
8859,507,385,132040,121608
8861,507,385,131995,121587
8863,507,385,131948,121572
8866,507,385,131906,121551
8868,508,386,131856,121522
8871,507,385,131806,121510
8873,508,385,131762,121480
8877,508,385,131706,121467
8879,509,385,131674,121443
8881,508,385,131623,121419
8884,508,386,131557,121395
8886,508,386,131519,121381
8889,508,385,131471,121364
8891,508,386,131431,121340
8894,508,386,131385,121325
8896,509,386,131342,121308
8899,509,386,131302,121298
8901,509,385,131268,121279
8903,509,385,131230,121274
8906,509,386,131212,121249
8908,509,386,131184,121240
8911,509,386,131145,121236
8913,509,386,131120,121221
8916,509,386,131111,121225
8919,509,386,131079,121213
8921,509,386,131061,121201
8924,509,386,131059,121199
8926,509,386,131045,121189
8929,509,386,131030,121183
8931,509,386,131027,121193
8934,509,386,131014,121192
8936,509,386,131011,121186
8939,509,386,131005,121186
8941,509,386,130990,121188
8943,509,386,131003,121190
8946,509,386,131005,121189
8948,509,386,131014,121190
8951,509,386,131012,121193
8953,509,386,131016,121200
8956,510,386,131034,121206
8958,510,386,131035,121214
8961,510,386,131046,121221
8964,509,386,131068,121223
8966,509,386,131086,121235
8969,509,386,131088,121239
8971,509,386,131105,121250
8974,509,386,131129,121254
8976,509,386,131141,121253
8979,509,386,131153,121270
8981,508,386,131170,121280
8983,509,386,131206,121289
8986,509,386,131221,121297
8988,509,386,131247,121303
8991,509,386,131258,121314
8993,509,386,131282,121318
8996,509,386,131306,121327
8998,509,386,131327,121341
9000,509,386,131354,121346
9004,509,386,131384,121365
9006,509,386,131403,121342
9009,509,386,131433,121379
9011,509,386,131459,121389
9014,509,386,131489,121400
9016,510,386,131520,121416
9019,510,386,131552,121430
9021,510,386,131580,121442
9023,511,386,131610,121444
9026,511,386,131636,121459
9028,512,386,131677,121473
9031,512,386,131701,121479
9033,512,386,131730,121504
9036,512,387,131765,121512
9038,512,386,131798,121520
9040,513,387,131834,121520
9043,515,387,131864,121552
9046,515,387,131890,121553
9049,515,386,131924,121573
9051,514,387,131951,121579
9054,514,387,131980,121595
9056,515,387,132011,121610
9059,515,387,132011,121616
9061,516,387,132064,121632
9063,516,387,132095,121632
9066,516,387,132133,121655
9068,515,387,132147,121666
9071,514,387,132147,121668
9073,513,387,132201,121684
9076,512,387,132230,121684
9078,510,387,132265,121713
9080,509,387,132279,121714
9083,508,387,132304,121724
9085,507,387,132304,121732
9089,507,387,132345,121742
9091,506,387,132376,121755
9094,505,387,132376,121762
9096,506,387,132418,121774
9099,506,387,132445,121774
9101,506,387,132456,121799
9103,506,387,132456,121801
9106,506,387,132499,121797
9108,506,387,132524,121797
9111,505,387,132542,121813
9113,506,387,132554,121828
9116,506,387,132569,121841
9118,506,387,132569,121850
9120,506,387,132586,121845
9123,506,387,132624,121857
9125,506,387,132630,121857
9128,507,387,132654,121870
9131,507,387,132654,121870
9134,507,387,132663,121881
9136,507,387,132694,121881
9139,507,387,132716,121884
9141,507,387,132713,121894
9143,507,387,132713,121899
9146,507,387,132743,121903
9148,508,387,132755,121903
9151,508,387,132771,121917
9153,508,387,132771,121908
9156,509,387,132774,121917
9158,510,387,132788,121917
9160,511,387,132812,121925
9163,515,387,132827,121926
9165,519,387,132827,121940
9168,525,387,132829,121940
9170,535,387,132834,121936
9174,546,387,132855,121946
9176,563,387,132855,121954
9179,572,387,132863,121959
9181,574,387,132875,121959
9183,568,387,132892,121951
9186,540,387,132889,121959
9188,526,387,132897,121959
9191,493,387,132897,121962
9193,476,387,132899,121964
9196,467,387,132923,121964
9198,454,387,132923,121972
9200,448,387,132929,121984
9203,446,387,132931,121984
9205,446,387,132938,121974
9208,451,387,132933,121979
9210,454,387,132947,121979
9213,464,387,132947,121981
9216,472,387,132946,121990
9219,477,387,132948,121990
9221,485,387,132948,121990
9223,491,387,132961,121992
9226,495,387,132958,121992
9228,499,387,132959,121997
9231,506,387,132959,121990
9233,510,387,132969,121999
9236,512,387,132963,121999
9238,514,387,132981,121993
9240,516,387,132981,122003
9243,517,387,132969,122003
9245,517,387,132970,122000
9248,518,387,132970,121998
9250,518,387,132963,121999
9253,519,387,132966,121999
9255,519,387,132974,121999
9259,519,386,132974,121997
9261,520,386,132962,121990
9263,520,386,132959,121990
9266,520,386,132963,121997
9268,520,386,132966,121997
9271,519,386,132966,121996
9273,519,386,132966,121993
9276,520,386,132963,121993
9278,520,386,132968,122003
9280,520,386,132968,122001
9283,519,386,132966,122003
9285,520,386,132963,122003
9288,519,386,132965,122000
9290,519,386,132955,121992
9293,519,386,132955,121987
9295,519,386,132957,122003
9298,519,386,132967,122004
9300,519,386,132962,122000
9303,519,386,132962,122003
9306,519,386,132962,122003
9308,519,386,132965,121999
9311,518,386,132988,122001
9313,518,386,132970,121995
9316,518,386,132966,122000
9318,518,386,132985,122001
9320,518,386,132984,122005
9323,518,386,132976,122012
9325,519,386,132978,122006
9328,519,386,132996,122013
9330,519,386,132981,122016
9333,519,386,132994,122016
9335,519,386,133006,122014
9338,519,386,133022,122018
9340,519,386,133036,122029
9342,519,386,133034,122031
9346,519,386,133038,122033
9348,519,386,133046,122031
9351,519,386,133058,122040
9353,519,386,133061,122037
9356,519,386,133070,122044
9358,520,386,133096,122051
9360,520,386,133105,122047
9363,520,386,133110,122066
9365,520,386,133131,122062
9368,520,386,133144,122072
9370,521,386,133151,122073
9373,521,386,133170,122089
9375,521,386,133173,122085
9378,521,386,133191,122092
9380,522,386,133212,122089
9382,522,386,133216,122096
9385,523,386,133235,122108
9388,524,386,133249,122107
9391,524,386,133251,122115
9393,524,386,133264,122115
9396,525,386,133272,122112
9398,526,386,133265,122114
9400,526,386,133281,122123
9403,526,386,133283,122124
9405,526,386,133277,122115
9408,527,386,133271,122111
9410,527,387,133249,122108
9413,527,386,133225,122100
9415,527,386,133202,122087
9418,527,386,133157,122061
9420,528,386,133109,122033
9422,528,386,133039,122007
9425,528,386,132966,121958
9427,528,386,132880,121920
9431,528,387,132758,121872
9433,527,387,132658,121820
9436,527,387,132530,121769
9438,525,387,132386,121715
9440,524,387,132261,121655
9443,523,387,132111,121599
9445,522,387,131970,121540
9448,519,387,131815,121471
9450,517,387,131675,121421
9453,515,387,131538,121363
9455,513,387,131415,121314
9458,511,387,131285,121261
9460,508,387,131172,121218
9462,506,387,131083,121175
9465,504,387,130983,121149
9467,502,387,130898,121112
9470,500,387,130813,121082
9473,498,387,130748,121056
9476,497,387,130681,121024
9478,495,387,130618,121004
9480,494,387,130576,120982
9483,493,387,130529,120973
9485,492,387,130472,120947
9488,490,387,130430,120935
9490,490,387,130403,120920
9493,490,387,130361,120902
9495,489,387,130334,120894
9498,489,387,130317,120884
9500,489,387,130299,120880
9502,489,387,130283,120873
9505,489,387,130268,120867
9507,489,387,130257,120860
9510,490,387,130247,120865
9512,490,387,130246,120859
9516,490,387,130246,120864
9518,491,387,130233,120863
9520,491,387,130236,120863
9523,492,387,130244,120881
9525,492,387,130257,120876
9528,492,387,130264,120885
9530,492,387,130277,120888
9533,493,387,130277,120898
9535,493,387,130312,120903
9538,493,387,130312,120918
9540,494,387,130335,120923
9542,494,387,130355,120923
9545,495,387,130388,120939
9547,495,387,130407,120946
9550,495,387,130407,120954
9552,495,387,130439,120962
9555,496,387,130469,120962
9558,496,387,130506,120989
9560,496,387,130506,120999
9563,497,387,130553,121011
9565,497,387,130578,121011
9568,498,387,130614,121041
9570,499,387,130643,121038
9573,499,387,130643,121058
9575,499,387,130715,121076
9578,499,387,130742,121076
9580,500,387,130785,121111
9582,500,387,130785,121127
9585,500,387,130862,121142
9587,501,387,130905,121142
9590,501,387,130945,121153
9592,501,387,130983,121177
9595,501,387,131005,121205
9597,502,387,131005,121211
9600,502,387,131052,121233
9603,503,387,131129,121249
9605,503,387,131181,121249
9608,503,387,131212,121279
9610,503,387,131212,121303
9613,503,387,131266,121323
9615,503,387,131335,121323
9618,503,387,131367,121338
9620,504,387,131367,121354
9622,504,387,131413,121382
9625,505,387,131484,121396
9627,505,387,131484,121410
9630,505,387,131552,121424
9632,505,387,131587,121424
9635,505,387,131632,121441
9637,505,387,131632,121470
9639,505,387,131656,121482
9643,505,387,131721,121494
9645,505,387,131753,121494
9648,506,387,131753,121523
9650,506,387,131813,121523
9653,506,387,131850,121540
9655,506,387,131850,121556
9658,506,387,131885,121576
9660,506,388,131936,121576
9662,506,387,131971,121590
9665,506,387,131971,121608
9667,507,387,132007,121622
9670,507,387,132070,121622
9672,507,387,132093,121630
9675,507,387,132093,121655
9677,507,388,132161,121655
9679,507,387,132193,121674
9682,506,387,132193,121700
9684,506,387,132224,121711
9688,506,387,132273,121711
9690,506,388,132294,121713
9693,507,387,132294,121728
9695,507,388,132319,121752
9698,507,388,132348,121752
9700,506,388,132348,121754
9702,506,387,132379,121758
9705,506,388,132385,121768
9707,506,388,132385,121774
9710,506,387,132395,121765
9712,506,388,132398,121764
9715,506,388,132393,121764
9717,506,388,132381,121762
9719,506,388,132381,121756
9722,507,388,132334,121756
9724,507,388,132334,121730
9728,506,388,132316,121732
9730,506,387,132298,121718
9733,507,388,132263,121718
9735,507,388,132204,121708
9738,507,388,132204,121673
9740,507,388,132120,121673
9742,507,388,132120,121630
9745,507,388,132080,121602
9747,507,388,132028,121594
9750,507,388,131986,121572
9752,507,388,131944,121547
9755,508,388,131893,121547
9757,508,388,131851,121533
9759,508,388,131809,121512
9762,508,388,131746,121495
9764,508,388,131702,121469
9767,508,388,131615,121450
9769,508,388,131615,121413
9773,508,388,131570,121413
9775,508,388,131515,121393
9778,508,388,131498,121381
9780,508,388,131440,121363
9782,508,388,131405,121347
9785,508,388,131370,121327
9787,508,388,131333,121317
9790,508,388,131310,121307
9792,508,388,131278,121297
9795,508,388,131249,121291
9797,508,388,131222,121271
9799,508,388,131198,121271
9802,509,388,131190,121263
9804,509,388,131170,121256
9807,509,388,131150,121251
9809,509,388,131145,121238
9812,509,388,131140,121247
9815,509,388,131127,121234
9818,509,388,131125,121244
9820,509,388,131123,121239
9822,509,388,131116,121240
9825,509,388,131104,121239
9827,509,388,131114,121240
9830,509,388,131121,121237
9832,510,388,131137,121246
9835,510,388,131141,121255
9837,510,388,131159,121259
9839,510,388,131153,121264
9842,510,388,131172,121274
9844,509,388,131187,121281
9847,509,388,131189,121276
9849,509,388,131200,121293
9852,509,388,131210,121302
9854,509,388,131231,121305
9858,510,388,131239,121314
9860,510,388,131270,121313
9862,510,388,131295,121320
9865,510,388,131311,121330
9867,510,388,131333,121338
9870,510,388,131362,121350
9872,510,388,131384,121366
9875,510,388,131397,121373
9877,510,388,131425,121380
9879,510,388,131451,121391
9882,511,388,131471,121399
9884,511,388,131493,121417
9887,511,388,131531,121417
9889,511,388,131562,121435
9892,511,388,131587,121440
9894,512,388,131612,121451
9897,512,388,131637,121461
9900,512,388,131668,121482
9902,512,388,131700,121491
9905,512,388,131712,121509
9907,513,388,131754,121511
9910,514,388,131789,121526
9912,515,388,131823,121542
9915,516,388,131851,121559
9917,516,388,131876,121567
9919,516,388,131909,121578
9922,515,388,131945,121596
9924,516,388,131965,121605
9927,516,388,131997,121616
9929,516,388,132015,121619
9932,516,388,132063,121639
9934,516,388,132077,121653
9937,515,388,132121,121662
9939,514,388,132143,121667
9942,513,388,132176,121687
9945,512,388,132206,121696
9947,511,388,132238,121707
9950,509,388,132259,121722
9952,508,388,132282,121731
9955,506,388,132313,121741
9957,506,388,132340,121751
9959,505,388,132369,121750
9962,505,388,132398,121779
9964,505,388,132428,121783
9967,505,388,132443,121796
9969,505,388,132463,121803
9972,505,388,132497,121810
9974,506,388,132521,121823
9977,506,388,132542,121830
9979,505,388,132561,121837
9981,505,388,132584,121841
9985,506,388,132605,121852
9987,506,388,132623,121860
9990,506,388,132623,121872
9992,506,388,132660,121875
9995,507,388,132685,121875
9997,507,388,132708,121896
9999,507,388,132725,121897
10002,507,388,132734,121907
10004,507,388,132734,121913
10007,507,388,132771,121924
10009,507,388,132782,121926
10012,507,388,132782,121936
10014,507,388,132820,121939
10017,507,388,132823,121939
10019,507,388,132850,121955
10021,508,388,132854,121955
10024,509,388,132870,121957
10027,509,388,132870,121968
10030,510,388,132904,121974
10032,513,388,132906,121981
10035,516,388,132906,121983
10037,523,388,132929,121986
10039,530,388,132946,121986
10042,551,388,132963,122004
10044,559,388,132963,122002
10047,568,388,132966,122000
10049,573,388,132984,122000
10052,571,388,133000,121997
10054,547,389,133007,122007
10057,533,389,133009,122022
10059,499,388,133022,122022
10061,487,388,133026,122022
10064,464,388,133026,122035
10066,457,388,133026,122033
10070,449,388,133043,122034
10072,446,388,133052,122034
10075,445,388,133059,122035
10077,450,388,133061,122034
10079,454,388,133061,122040
10082,460,388,133069,122040
10084,467,388,133070,122039
10087,473,388,133081,122041
10089,484,388,133081,122047
10092,490,388,133088,122049
10094,495,388,133090,122049
10097,499,388,133096,122057
10099,506,388,133096,122054
10101,510,388,133095,122054
10104,512,388,133098,122054
10106,515,388,133105,122054
10109,515,389,133100,122071
10112,517,388,133100,122063
10115,518,388,133114,122059
10117,518,388,133113,122059
10119,518,388,133110,122063
10122,519,389,133122,122068
10124,519,388,133118,122068
10127,519,388,133118,122067
10129,519,388,133116,122069
10132,520,389,133111,122069
10134,520,388,133111,122064
10137,520,388,133130,122066
10139,520,389,133116,122066
10141,520,388,133121,122068
10144,521,389,133118,122061
10146,521,389,133122,122061
10149,520,389,133122,122067
10151,520,389,133125,122063
10155,520,388,133119,122063
10157,520,389,133119,122068
10159,519,389,133128,122069
10162,519,389,133113,122069
10164,519,389,133113,122066
10167,519,389,133115,122073
10169,519,389,133114,122070
10172,519,389,133121,122070
10174,519,389,133134,122071
10177,519,388,133134,122069
10179,519,389,133120,122069
10181,519,389,133126,122068
10184,519,389,133126,122071
10186,519,389,133126,122076
10189,519,389,133135,122076
10191,519,389,133133,122077
10194,519,389,133133,122079
10196,519,389,133141,122080
10199,519,389,133134,122080
10202,519,389,133154,122079
10204,519,389,133152,122083
10207,519,389,133152,122090
10209,519,389,133161,122090
10212,519,389,133182,122097
10214,519,389,133183,122099
10217,519,389,133183,122097
10219,519,389,133195,122104
10221,520,389,133204,122104
10224,519,389,133215,122119
10226,520,389,133230,122115
10229,520,389,133242,122119
10231,520,389,133258,122122
10234,520,389,133283,122136
10236,520,389,133301,122136
10238,521,389,133301,122149
10242,521,389,133308,122149
10244,522,389,133316,122149
10247,522,389,133345,122159
10249,523,389,133352,122155
10252,523,389,133353,122160
10254,523,389,133360,122172
10257,523,389,133377,122170
10259,524,389,133394,122178
10261,525,389,133388,122177
10264,525,389,133396,122184
10266,525,389,133408,122174
10269,526,389,133415,122184
10271,526,389,133420,122187
10274,526,389,133428,122187
10276,527,389,133405,122177
10278,527,389,133387,122171
10281,527,389,133366,122161
10284,527,389,133333,122147
10287,528,389,133288,122127
10289,528,389,133249,122101
10292,527,389,133180,122072
10294,527,389,133127,122043
10297,527,389,133039,121996
10299,527,389,132942,121961
10301,527,389,132837,121909
10304,527,389,132702,121856
10306,526,389,132573,121802
10309,525,389,132438,121736
10311,523,389,132285,121684
10314,521,389,132150,121621
10316,520,389,132005,121559
10318,518,389,131868,121504
10321,514,389,131731,121440
10323,513,389,131592,121393
10327,511,389,131460,121340
10329,509,389,131339,121296
10332,507,389,131233,121252
10334,503,389,131137,121211
10337,501,389,131036,121181
10339,500,389,130963,121151
10341,498,389,130898,121120
10344,496,389,130830,121085
10346,495,389,130764,121064
10349,494,389,130693,121039
10351,493,389,130649,121021
10354,492,389,130605,121012
10356,492,389,130558,120991
10358,491,389,130524,120981
10361,490,389,130490,120972
10363,490,389,130461,120968
10366,490,389,130443,120945
10369,490,389,130420,120946
10372,490,389,130406,120933
10374,490,389,130384,120925
10377,490,389,130373,120923
10379,490,389,130358,120926
10381,491,389,130360,120924
10384,491,389,130346,120934
10386,491,389,130347,120926
10389,491,389,130345,120931
10391,491,389,130354,120936
10394,492,389,130357,120937
10396,492,389,130369,120939
10398,492,389,130373,120925
10401,492,389,130387,120958
10403,493,389,130408,120963
10406,493,389,130427,120975
10408,493,389,130439,120983
10412,494,389,130448,120991
10414,494,389,130475,121001
10417,495,389,130488,121002
10419,495,389,130506,121019
10421,495,389,130536,121023
10424,496,389,130561,121034
10426,496,389,130598,121045
10429,496,389,130615,121058
10431,497,389,130643,121050
10434,497,389,130667,121073
10436,497,389,130695,121088
10438,498,389,130733,121098
10441,498,389,130765,121118
10443,499,389,130796,121120
10446,499,389,130831,121142
10448,499,389,130868,121152
10451,499,389,130868,121168
10454,500,389,130927,121174
10457,500,389,130971,121174
10459,501,389,131018,121210
10461,501,389,131053,121213
10464,501,389,131085,121238
10466,501,389,131120,121260
10469,502,389,131164,121271
10471,502,389,131204,121286
10474,502,389,131204,121312
10476,502,389,131288,121324
10478,503,389,131320,121324
10481,503,389,131372,121358
10483,503,389,131408,121379
10486,504,389,131441,121389
10488,504,389,131441,121405
10491,504,389,131524,121423
10493,504,389,131555,121434
10497,504,389,131555,121446
10499,505,389,131632,121469
