TimeStamp,ECG Data,GSR Data,PPG_Red Data,PPG_IR Data
114447,504,7,135420,116799
114450,503,7,135431,116804
114452,504,7,135433,116804
114455,505,7,135436,116806
114457,501,7,135436,116802
8,463,4,57548,57529
11,404,4,73926,73920
13,343,4,90296,90323
16,292,4,106710,116062
18,241,4,123133,116052
21,158,4,134080,116052
23,139,4,133880,116053
25,126,4,133910,116057
28,116,4,133904,116052
30,101,4,133901,116055
33,105,4,133899,116058
35,110,4,133899,116060
38,112,4,133901,116055
40,126,4,133913,116061
43,129,4,133914,116058
46,132,4,133926,116071
48,136,4,133915,116060
51,141,4,133928,116059
53,153,4,133930,116064
56,158,4,133935,116062
58,165,4,133940,116064
61,172,4,133944,116063
63,184,4,133960,116073
65,200,4,133966,116079
68,212,4,133957,116077
70,221,5,133980,116071
73,231,4,133987,116083
75,244,4,133990,116084
78,249,4,133986,116083
80,256,4,133997,116087
82,260,4,134005,116086
86,277,5,134010,116089
88,291,5,134012,116094
91,301,5,134028,116097
93,311,5,134033,116099
96,315,5,134045,116096
98,325,5,134038,116103
101,332,5,134054,116101
103,336,5,134064,116102
105,344,5,134060,116108
108,354,5,134070,116103
110,364,5,134065,116111
113,374,5,134077,116122
115,379,5,134083,116110
118,381,5,134100,116118
120,390,5,134102,116118
122,397,5,134098,116117
125,399,5,134108,116122
128,406,5,134127,116125
131,412,5,134125,116128
133,419,5,134110,116126
136,429,5,134128,116131
138,439,5,134128,116129
141,444,5,134135,116131
143,444,5,134134,116134
145,450,5,134141,116132
148,455,5,134136,116127
150,460,5,134146,116138
153,463,5,134151,116141
155,464,5,134156,116139
158,463,5,134151,116129
160,471,5,134160,116150
162,474,5,134160,116143
165,473,6,134164,116145
167,479,5,134176,116149
171,486,6,134173,116152
173,488,6,134183,116154
176,494,6,134186,116147
178,501,6,134190,116159
181,504,6,134186,116153
183,503,6,134194,116162
185,511,6,134194,116164
188,511,6,134198,116161
190,510,6,134208,116166
193,514,6,134197,116172
195,518,6,134211,116165
198,526,6,134213,116166
200,536,6,134219,116174
202,542,6,134225,116173
205,547,6,134225,116165
207,545,6,134215,116168
210,542,6,134228,116168
212,545,6,134239,116176
216,547,6,134234,116171
218,551,6,134233,116177
221,553,6,134232,116172
223,556,6,134238,116178
225,559,6,134250,116176
228,560,6,134243,116181
230,561,6,134247,116166
233,564,7,134252,116166
235,559,6,134257,116187
238,559,7,134256,116187
240,563,6,134259,116183
242,563,7,134261,116183
245,568,7,134267,116186
247,565,7,134264,116184
250,564,7,134277,116181
252,566,7,134269,116184
256,566,7,134272,116196
258,569,7,134273,116188
261,570,7,134284,116188
263,574,7,134285,116203
265,580,7,134285,116197
268,574,7,134298,116191
270,574,7,134290,116196
273,574,7,134290,116190
275,575,7,134292,116212
278,579,7,134294,116212
280,575,7,134309,116197
282,575,7,134309,116194
285,579,7,134297,116197
287,580,7,134308,116197
290,584,7,134310,116207
292,582,7,134313,116202
295,579,7,134315,116220
297,584,7,134325,116210
301,584,7,134325,116204
303,590,7,134321,116220
305,594,7,134332,116220
308,588,7,134338,116207
310,588,7,134338,116216
313,589,7,134338,116213
315,588,7,134336,116213
318,583,7,134349,116220
320,587,7,134356,116221
322,587,8,134349,116221
325,587,7,134358,116221
327,587,7,134358,116228
330,594,8,134358,116226
332,595,7,134362,116232
335,595,7,134362,116230
337,600,8,134372,116230
340,601,7,134388,116228
343,597,8,134388,116233
345,597,8,134379,116237
348,596,8,134384,116235
350,590,7,134384,116234
353,590,7,134394,116242
355,592,7,134399,116242
358,592,8,134410,116241
360,587,8,134410,116246
362,588,8,134407,116244
365,590,8,134413,116244
367,590,8,134424,116248
370,589,8,134424,116241
372,592,8,134416,116241
375,593,8,134432,116258
377,591,8,134432,116256
380,591,8,134429,116260
382,595,8,134441,116263
385,591,8,134441,116263
388,593,8,134427,116263
390,598,8,134460,116262
393,595,8,134460,116264
395,597,8,134447,116273
398,601,8,134464,116273
400,601,8,134464,116276
402,611,8,134464,116272
405,622,8,134466,116272
407,633,8,134477,116277
410,658,8,134477,116275
412,674,8,134483,116269
415,679,8,134448,116269
417,678,8,134494,116275
420,663,8,134494,116284
422,655,8,134488,116284
424,643,8,134497,116289
428,631,8,134501,116289
430,612,8,134475,116288
433,593,8,134475,116291
435,575,8,134499,116290
438,568,8,134512,116290
440,569,8,134520,116292
442,576,8,134520,116296
445,572,8,134520,116301
447,573,8,134528,116301
450,580,8,134532,116299
452,584,8,134532,116300
455,585,8,134532,116306
457,589,8,134544,116301
460,588,8,134542,116301
462,589,8,134555,116306
464,592,8,134555,116318
467,589,8,134558,116317
470,588,8,134567,116317
473,594,8,134603,116317
475,596,8,134592,116327
478,594,8,134592,116330
480,596,8,134596,116331
482,593,8,134599,116335
485,593,8,134612,116335
487,589,8,134612,116340
490,584,8,134619,116332
492,586,8,134653,116340
495,585,8,134647,116347
497,582,8,134647,116354
500,578,8,134649,116349
502,581,8,134677,116361
504,582,8,134698,116364
507,580,8,134703,116367
509,572,8,134711,116367
513,571,8,134704,116375
515,576,8,134711,116377
518,578,8,134727,116382
520,578,8,134732,116387
522,573,8,134728,116385
525,571,8,134728,116396
527,577,8,134752,116398
530,578,8,134746,116399
532,584,8,134765,116393
535,590,8,134771,116401
537,590,8,134779,116410
540,587,8,134786,116415
542,587,8,134803,116428
544,590,8,134802,116415
547,590,8,134821,116425
549,586,8,134814,116424
552,582,8,134825,116428
555,579,8,134838,116428
558,578,8,134845,116436
560,576,8,134833,116431
562,573,8,134850,116446
565,573,8,134870,116446
567,573,8,134878,116441
570,572,8,134872,116447
572,570,8,134874,116441
575,573,8,134874,116436
577,581,8,134875,116429
580,583,8,134883,116441
582,580,8,134889,116442
584,583,8,134893,116446
587,582,7,134890,116451
589,587,8,134904,116449
592,590,7,134909,116465
594,590,8,134912,116455
598,587,8,134919,116459
600,590,8,134907,116456
602,590,8,134911,116455
605,586,7,134914,116451
607,587,8,134915,116451
610,584,8,134896,116441
612,589,7,134865,116440
615,594,8,134859,116435
617,594,8,134840,116421
620,591,7,134803,116409
622,593,8,134759,116389
624,592,7,134711,116378
627,596,8,134670,116358
629,592,8,134627,116339
632,592,8,134576,116318
634,591,8,134512,116302
637,588,8,134461,116278
640,586,8,134418,116268
642,588,8,134354,116237
645,590,8,134313,116218
647,587,8,134267,116206
650,584,8,134213,116191
652,581,8,134165,116169
655,589,8,134122,116152
657,595,8,134087,116125
660,597,8,134035,116113
662,599,8,133988,116095
664,602,8,133951,116088
667,602,8,133907,116063
669,601,8,133878,116058
672,604,8,133846,116040
674,599,8,133803,116036
677,603,8,133787,116015
679,604,8,133759,116010
681,606,8,133732,115998
685,607,8,133711,115991
687,600,8,133674,115982
690,592,8,133663,115975
692,585,8,133647,115972
695,584,8,133627,115967
697,583,8,133618,115956
700,579,8,133600,115953
702,575,8,133588,115951
704,575,8,133582,115946
707,572,8,133578,115941
709,569,8,133566,115937
712,568,8,133560,115931
714,565,8,133558,115933
717,564,8,133551,115934
719,561,8,133553,115925
721,556,8,133555,115929
724,551,8,133551,115922
727,541,8,133551,115926
730,545,8,133548,115922
732,554,8,133546,115925
735,554,7,133556,115925
737,550,8,133556,115930
740,550,8,133556,115938
742,550,8,133561,115942
744,549,8,133577,115942
747,546,8,133577,115933
749,539,8,133581,115929
752,541,8,133577,115935
754,554,8,133582,115932
757,562,8,133582,115927
759,567,8,133592,115950
761,564,8,133602,115938
764,558,8,133614,115963
766,554,8,133610,115939
770,550,8,133605,115944
772,554,8,133613,115941
775,560,8,133613,115934
777,565,8,133619,115953
780,565,8,133609,115953
782,556,8,133614,115936
784,555,8,133614,115939
787,558,8,133605,115931
789,559,8,133601,115931
792,562,8,133606,115935
794,560,8,133601,115931
797,561,8,133596,115931
799,563,8,133593,115927
801,565,8,133591,115927
804,567,8,133577,115922
806,563,8,133577,115919
809,562,8,133572,115919
812,562,8,133563,115919
815,561,8,133565,115916
817,553,8,133565,115908
820,558,8,133555,115911
822,562,8,133549,115913
824,558,8,133549,115904
827,557,8,133532,115896
829,558,8,133522,115900
832,557,8,133535,115890
834,558,8,133526,115890
837,558,8,133524,115894
839,554,8,133524,115889
841,558,8,133518,115892
844,562,8,133511,115893
846,557,8,133511,115887
849,557,8,133515,115889
851,558,8,133513,115889
855,557,8,133518,115885
857,551,8,133518,115889
860,556,8,133522,115894
862,560,8,133528,115893
864,555,8,133528,115897
867,556,8,133528,115897
869,559,8,133546,115894
872,553,8,133546,115894
874,554,8,133544,115895
877,555,8,133555,115895
879,549,8,133555,115900
881,550,8,133561,115897
884,552,8,133556,115897
886,551,8,133576,115901
889,550,8,133576,115898
891,552,8,133577,115900
894,551,8,133550,115900
897,548,8,133592,115902
900,544,8,133588,115904
902,542,8,133588,115905
904,545,8,133576,115902
907,545,8,133578,115902
909,543,8,133580,115896
912,537,8,133580,115903
914,540,8,133585,115893
917,544,8,133576,115893
919,544,8,133576,115901
921,543,8,133553,115897
924,542,8,133580,115897
926,538,8,133575,115898
929,541,8,133575,115895
931,546,8,133573,115887
934,546,8,133544,115887
936,544,8,133560,115892
940,539,8,133560,115895
942,543,8,133566,115888
944,547,8,133554,115888
947,545,8,133557,115888
949,542,8,133556,115892
952,550,8,133556,115884
954,548,7,133544,115879
957,548,8,133536,115879
959,549,8,133537,115877
961,556,8,133537,115877
964,551,7,133527,115874
966,550,8,133525,115874
969,553,7,133521,115877
971,556,8,133515,115878
974,557,8,133515,115865
976,555,8,133536,115864
979,549,8,133512,115864
982,550,8,133529,115863
984,554,8,133529,115873
987,553,8,133512,115873
989,555,8,133513,115873
992,560,8,133516,115877
994,564,8,133514,115874
997,564,8,133514,115873
999,560,8,133525,115870
1001,551,8,133522,115870
1004,551,8,133524,115867
1006,555,8,133536,115872
1009,556,8,133527,115870
1011,549,8,133533,115870
1014,550,8,133525,115877
1016,555,8,133541,115877
1019,561,8,133541,115882
1021,560,8,133547,115875
1024,562,8,133556,115878
1027,555,8,133543,115878
1029,552,8,133552,115874
1032,553,8,133555,115881
1034,551,8,133563,115883
1037,547,8,133571,115887
1039,544,8,133579,115892
1041,541,8,133584,115882
1044,539,8,133591,115892
1046,538,7,133591,115900
1049,536,8,133598,115897
1051,531,7,133602,115904
1054,532,8,133616,115906
1056,540,7,133627,115904
1059,541,7,133631,115903
1061,536,7,133642,115912
1063,541,7,133633,115916
1067,543,7,133651,115915
1069,545,7,133652,115915
1072,546,7,133662,115920
1074,541,7,133681,115929
1077,540,7,133683,115935
1079,542,7,133688,115936
1081,541,7,133702,115939
1084,538,7,133704,115936
1086,541,7,133715,115942
1089,539,7,133710,115944
1091,542,8,133720,115950
1094,546,7,133733,115955
1096,546,8,133732,115947
1099,542,7,133746,115955
1101,543,7,133743,115952
1103,541,7,133760,115960
1106,542,7,133761,115962
1108,538,7,133773,115964
1112,538,7,133774,115962
1114,537,7,133788,115971
1117,533,7,133795,115972
1119,530,7,133804,115978
1121,533,7,133795,115976
1124,532,7,133813,115983
1126,534,7,133816,115979
1129,534,7,133831,115987
1131,532,7,133817,115986
1134,534,7,133831,115992
1136,537,7,133831,115994
1139,536,7,133846,115998
1141,532,7,133849,116002
1143,535,7,133853,116006
1146,537,7,133857,116003
1148,537,7,133862,116015
1152,538,7,133869,116016
1154,535,7,133882,116004
1157,531,7,133887,116018
1159,527,7,133887,116026
1161,523,7,133885,116026
1164,526,7,133889,116020
1166,527,7,133894,116025
1169,531,7,133905,116030
1171,531,7,133910,116037
1174,536,7,133912,116031
1176,543,7,133915,116039
1179,546,7,133915,116036
1181,546,7,133922,116046
1183,544,7,133922,116017
1186,546,7,133932,116040
1188,540,7,133932,116022
1191,535,7,133943,116046
1193,527,7,133950,116049
1197,522,7,133945,116028
1199,528,7,133949,116056
1201,528,7,133965,116043
1204,525,7,133968,116054
1206,522,7,133967,116061
1209,520,7,133972,116061
1211,526,7,133978,116065
1214,529,7,133974,116065
1216,536,7,133982,116076
1219,538,7,133993,116076
1221,550,7,133996,116078
1223,552,7,134009,116074
1226,554,8,134007,116086
1228,557,8,134016,116074
1231,555,7,134016,116081
1233,549,7,134024,116097
1236,545,7,134030,116097
1239,535,7,134050,116093
1241,535,7,134050,116090
1244,538,7,134054,116095
1246,540,7,134064,116115
1249,543,7,134080,116115
1251,540,7,134086,116117
1254,538,7,134087,116117
1256,543,7,134096,116114
1259,546,7,134096,116139
1261,549,7,134103,116132
1263,547,7,134116,116132
1266,536,7,134131,116131
1268,535,7,134131,116124
1271,537,7,134152,116135
1273,534,8,134150,116131
1276,531,8,134160,116131
1278,532,7,134165,116137
1281,532,8,134171,116137
1284,533,8,134177,116145
1286,531,7,134177,116148
1289,531,8,134190,116160
1291,530,8,134201,116155
1294,530,7,134201,116152
1296,534,7,134218,116159
1299,535,8,134223,116159
1301,542,8,134231,116175
1303,541,8,134231,116168
1306,540,7,134251,116177
1308,537,7,134249,116177
1311,533,7,134265,116172
1313,531,7,134265,116183
1316,532,7,134269,116187
1318,534,8,134286,116187
1320,534,7,134299,116188
1324,533,7,134294,116190
1326,534,8,134296,116190
1329,533,7,134318,116202
1331,533,7,134321,116202
1334,535,8,134330,116207
1336,545,8,134330,116209
1339,544,8,134338,116209
1341,538,7,134338,116216
1343,532,7,134349,116220
1346,531,8,134360,116219
1348,532,7,134366,116219
1351,530,8,134376,116219
1353,525,7,134376,116232
1356,531,8,134374,116236
1358,534,7,134386,116236
1360,532,7,134396,116239
1363,534,7,134396,116241
1366,534,7,134401,116243
1369,534,8,134406,116243
1371,533,8,134420,116247
1374,533,8,134420,116247
1376,534,7,134421,116247
1379,536,8,134435,116258
1381,540,8,134435,116256
1383,540,7,134433,116264
1386,538,8,134450,116264
1638,503,7,134857,116457
1640,504,7,134844,116455
1643,506,7,134810,116439
1645,507,7,134786,116425
1648,514,7,134753,116417
1650,513,7,134706,116408
1640,504,7,134844,116455
1643,506,7,134810,116439
1645,507,7,134786,116425
1648,514,7,134753,116417
1650,513,7,134706,116408
1653,520,7,134658,116379
1655,523,7,134605,116364
1658,523,7,134545,116338
1660,523,7,134475,116317
1662,526,7,134424,116295
1666,525,7,134360,116274
1668,524,7,134305,116254
1671,527,7,134249,116236
1673,524,7,134196,116217
1676,528,7,134150,116192
1678,529,7,134086,116181
1680,531,7,134054,116159
1683,531,7,134010,116146
1685,524,7,133967,116132
1688,518,7,133919,116132
1690,516,7,133882,116099
1693,515,7,133838,116078
1695,517,7,133799,116068
1698,516,7,133759,116048
1700,514,7,133726,116039
1702,514,7,133704,116030
1705,514,7,133676,116019
1708,509,7,133644,116007
1711,502,7,133626,116007
1713,493,7,133598,115994
1716,493,7,133598,115983
1718,491,7,133558,115982
1720,488,7,133543,115982
1723,483,7,133540,115969
1725,474,7,133540,115962
1728,476,7,133509,115952
1730,484,7,133502,115948
1733,488,7,133490,115948
1735,486,7,133492,115950
1738,485,7,133492,115955
1740,483,7,133470,115951
1742,479,7,133480,115951
1745,473,7,133486,115947
1747,464,7,133485,115947
1751,466,7,133490,115951
1753,477,7,133493,115954
1756,485,7,133493,115944
1758,488,7,133497,115966
1760,485,7,133498,115957
1763,480,7,133502,115961
1765,478,7,133500,115961
1768,473,7,133515,115958
1770,473,7,133515,115958
1773,477,7,133521,115961
1775,476,7,133522,115961
1778,474,7,133544,115960
1780,474,7,133544,115969
1782,476,7,133544,115968
1785,482,7,133562,115974
1787,483,7,133570,115974
1790,479,7,133580,115981
1793,481,7,133580,115983
1796,481,7,133587,115983
1798,488,7,133597,115988
1800,489,7,133597,115989
1803,494,7,133611,115998
1805,496,7,133610,115998
1808,494,7,133625,116000
1810,493,7,133631,116000
1813,491,7,133632,115997
1815,487,7,133637,115992
1818,486,7,133633,115992
1820,486,7,133648,115991
1822,483,7,133648,115999
1825,485,7,133636,115997
1827,484,7,133642,116002
1830,485,7,133642,116000
1832,489,7,133649,116000
1836,491,7,133657,116003
1838,488,7,133657,116002
1840,493,7,133656,115998
1843,496,7,133655,116011
1845,494,7,133654,116011
1848,488,7,133664,116008
1850,490,7,133664,116011
1853,492,7,133658,116003
1855,492,7,133663,116003
1858,489,7,133668,116016
1860,493,7,133668,116006
1862,496,7,133681,116010
1865,497,7,133686,116010
1867,494,7,133687,116011
1870,488,7,133690,116008
1872,488,7,133690,116011
1875,490,7,133698,116016
1878,489,7,133699,116020
1880,492,7,133699,116016
1883,497,7,133712,116016
1885,497,7,133723,116023
1888,496,7,133723,116021
1890,496,7,133722,116017
1893,492,7,133685,116017
1895,484,7,133685,116018
1898,481,7,133732,116021
1900,479,7,133689,116021
1902,476,7,133724,116023
1905,472,7,133724,116027
1907,476,7,133724,116019
1910,480,7,133711,116019
1912,480,7,133701,116017
1915,476,7,133701,116012
1917,475,7,133695,116012
1920,474,7,133702,116018
1923,473,7,133702,116011
1925,477,7,133704,116011
1928,480,7,133692,116011
1930,477,7,133692,116005
1933,481,7,133675,116005
1935,486,7,133676,116000
1938,491,7,133676,115997
1940,491,7,133666,115997
1942,490,7,133658,115997
1945,493,7,133664,115989
1947,495,7,133664,115980
1950,494,7,133641,115978
1952,495,7,133633,115977
1955,502,7,133620,115977
1957,503,7,133620,115969
1959,509,7,133612,115969
1963,514,7,133617,115974
1965,516,7,133617,115967
1968,513,7,133588,115962
1970,509,7,133575,115963
1973,508,7,133570,115953
1975,508,7,133559,115955
1978,507,7,133556,115955
1980,507,7,133552,115959
1982,507,7,133560,115940
1985,507,7,133557,115940
1987,498,7,133542,115940
1990,496,7,133541,115939
1992,492,7,133540,115939
1995,489,7,133553,115936
1997,484,7,133545,115943
1999,482,7,133548,115935
2002,480,7,133525,115942
2004,479,7,133542,115936
2008,477,7,133533,115940
2010,474,7,133538,115935
2013,478,7,133536,115941
2015,486,7,133535,115944
2018,494,7,133538,115937
2020,494,7,133550,115942
2022,498,7,133547,115944
2025,493,7,133548,115948
2027,490,7,133558,115936
2030,492,7,133565,115942
2032,490,7,133564,115947
2035,488,7,133553,115950
2037,485,7,133573,115949
2039,483,7,133579,115956
2042,478,7,133577,115956
2044,483,7,133596,115965
2048,486,7,133594,115962
2050,487,7,133602,115958
2053,486,7,133601,115964
2055,484,7,133613,115959
2058,480,7,133625,115971
2060,477,7,133632,115973
2062,482,7,133631,115979
2065,488,7,133639,115979
2067,489,7,133645,115980
2070,487,7,133668,115981
2072,483,7,133664,115978
2075,484,7,133670,115985
2077,482,7,133684,115990
2079,486,7,133685,115998
2082,490,7,133693,115990
2084,491,7,133701,115995
2087,488,7,133709,116000
2089,484,7,133723,116002
2093,486,7,133709,116015
2095,486,7,133725,116009
2098,490,7,133738,116022
2100,493,7,133741,116013
2102,492,7,133747,116023
2105,488,7,133747,116024
2107,482,7,133757,116030
2110,486,7,133765,116023
2112,491,7,133775,116031
2115,499,7,133776,116027
2117,494,7,133792,116037
2119,493,7,133796,116043
2122,495,7,133791,116040
2124,495,7,133804,116044
2127,498,7,133808,116047
2129,496,7,133812,116052
2132,501,7,133829,116053
2135,502,7,133823,116052
2138,500,7,133829,116051
2140,497,7,133825,116054
2142,498,7,133837,116054
2145,496,7,133832,116060
2147,495,7,133846,116060
2150,496,7,133841,116058
2152,492,7,133844,116064
2155,496,7,133851,116058
2157,500,7,133850,116064
2159,498,7,133853,116071
2162,498,7,133852,116077
2164,492,7,133857,116068
2167,491,7,133866,116079
2169,484,7,133877,116074
2172,488,7,133868,116066
2174,490,7,133866,116074
2178,492,7,133877,116068
2180,491,7,133873,116073
2182,489,7,133871,116059
2185,490,7,133876,116077
2187,484,7,133886,116067
2190,479,7,133886,116081
2192,472,7,133886,116082
2195,468,7,133889,116065
2197,473,7,133889,116081
2199,473,7,133894,116069
2202,472,7,133898,116078
2204,470,7,133899,116081
2207,469,7,133895,116081
2209,474,7,133907,116083
2212,476,7,133907,116085
2214,482,7,133902,116085
2217,483,7,133909,116085
2220,486,7,133914,116094
2222,487,7,133914,116085
2225,490,7,133908,116087
2227,488,7,133912,116088
2230,484,7,133913,116088
2232,484,7,133926,116093
2235,485,7,133924,116095
2237,489,7,133921,116090
2239,490,7,133919,116090
2242,492,7,133934,116098
2244,489,7,133934,116095
2247,492,7,133927,116094
2249,500,7,133927,116117
2252,501,7,133927,116100
2254,499,7,133923,116097
2257,492,7,133933,116121
2259,487,7,133946,116104
2262,486,7,133940,116104
2265,486,7,133944,116107
2267,487,7,133944,116109
2270,488,7,133938,116104
2272,486,7,133941,116104
2275,483,7,133943,116098
2277,483,7,133956,116114
2279,485,7,133956,116106
2282,491,7,133949,116115
2284,491,7,133958,116115
2287,486,7,133956,116115
2289,489,7,133956,116116
2292,491,7,133958,116115
2294,493,7,133957,116113
2297,493,7,133957,116117
2299,496,7,133969,116122
2301,496,7,133967,116122
2305,491,7,133979,116134
2307,495,7,133979,116126
2310,506,7,133983,116125
2312,513,7,133985,116125
2315,519,7,133979,116127
2317,546,7,133983,116131
2319,556,7,133998,116131
2322,568,7,133995,116131
2324,579,7,133995,116134
2327,583,7,133999,116140
2329,573,7,134001,116143
2332,562,7,134001,116136
2334,552,8,134011,116136
2337,538,7,134022,116140
2339,503,7,134022,116147
2341,484,7,134030,116151
2344,475,7,134030,116151
2347,465,7,134028,116154
2350,456,7,134028,116154
2352,455,7,134033,116154
2355,454,7,134059,116166
2357,457,7,134059,116158
2359,464,7,134060,116165
2362,471,7,134071,116167
2364,470,7,134071,116171
2367,474,7,134053,116171
2369,480,7,134097,116172
2372,478,7,134097,116171
2374,479,7,134106,116171
2377,481,7,134110,116181
2379,487,7,134110,116183
2381,488,7,134118,116189
2384,486,7,134128,116189
2386,479,7,134139,116192
2390,479,7,134139,116192
2392,481,7,134121,116192
2395,482,7,134158,116204
2397,476,7,134158,116206
2399,478,7,134165,116213
2402,480,7,134183,116213
2404,479,7,134194,116218
2407,481,7,134194,116224
2409,484,7,134189,116226
2412,483,7,134193,116226
2414,480,7,134213,116233
2417,475,7,134213,116233
2419,477,7,134222,116233
2421,480,7,134239,116238
2424,490,7,134239,116246
2426,492,7,134245,116246
2429,493,7,134250,116250
2432,496,7,134250,116257
2435,498,7,134265,116257
2437,501,7,134293,116258
2439,504,7,134293,116272
2442,502,7,134286,116274
2444,504,7,134297,116274
2447,509,7,134321,116269
2449,512,7,134335,116289
2452,511,7,134335,116283
2454,500,7,134333,116285
2457,500,7,134333,116287
2459,501,7,134324,116291
2461,500,7,134341,116303
2464,496,7,134367,116300
2466,496,7,134357,116300
2469,499,7,134369,116301
2471,502,7,134381,116310
2475,502,7,134399,116307
2477,500,7,134393,116314
2479,495,7,134414,116314
2482,494,7,134394,116314
2484,499,7,134426,116320
2487,502,7,134423,116320
2489,500,7,134416,116323
2492,506,7,134437,116328
2494,511,7,134426,116333
2497,513,7,134426,116325
2499,509,7,134445,116340
2501,514,7,134444,116345
2504,510,7,134442,116345
2506,510,7,134454,116340
2509,513,7,134456,116350
2511,512,7,134454,116349
2514,509,7,134451,116350
2516,508,7,134457,116348
2519,507,7,134450,116348
2522,507,7,134442,116346
2524,507,7,134438,116344
2527,505,7,134419,116333
2529,501,7,134400,116321
2532,504,7,134378,116311
2534,513,7,134345,116297
2537,516,7,134315,116286
2539,515,7,134278,116265
2541,521,7,134218,116243
2544,526,7,134174,116237
2546,528,7,134121,116219
2549,527,7,134070,116188
2551,523,7,134024,116179
2554,525,7,133987,116161
2556,525,7,133937,116142
2558,528,7,133884,116125
2562,523,7,133839,116103
2564,525,7,133786,116086
2567,529,7,133737,116072
2569,530,7,133698,116050
2572,529,7,133643,116031
2574,527,7,133600,116016
2577,523,7,133557,116001
2579,519,7,133527,115981
2581,521,7,133504,115984
2584,524,7,133475,115968
2586,526,7,133425,115962
2589,525,7,133410,115943
2591,524,7,133374,115934
2594,525,7,133351,115926
2596,523,7,133331,115917
2598,517,7,133305,115908
2601,515,7,133287,115905
2604,511,7,133273,115896
2607,511,7,133245,115884
2609,503,7,133236,115876
2612,502,7,133237,115865
2614,502,7,133215,115874
2617,499,7,133207,115870
2619,494,7,133190,115864
2621,494,7,133193,115863
2624,492,7,133179,115851
2626,492,7,133180,115860
2629,490,7,133180,115852
2631,485,7,133176,115845
2634,481,7,133176,115861
2636,476,7,133170,115848
2638,472,7,133164,115849
2641,476,7,133170,115855
2643,477,7,133178,115833
2647,483,7,133176,115856
2649,478,7,133187,115863
2652,479,7,133183,115835
2654,483,7,133200,115865
2657,480,7,133188,115866
2659,480,7,133212,115862
2661,486,7,133205,115864
2664,487,7,133208,115847
2666,492,7,133218,115865
2669,493,7,133219,115864
2671,497,7,133232,115868
2674,495,7,133237,115868
2676,484,7,133240,115875
2678,485,7,133239,115873
2681,489,7,133250,115889
2683,492,7,133256,115880
2686,497,7,133260,115882
2689,493,7,133266,115885
2692,494,7,133266,115877
2694,496,7,133273,115878
2697,493,7,133270,115880
2699,492,7,133274,115878
2701,499,7,133272,115879
2704,503,7,133267,115875
2706,505,7,133269,115887
2709,503,7,133262,115874
2711,499,7,133260,115879
2714,496,7,133265,115879
2716,501,7,133275,115874
2718,504,7,133275,115881
2721,507,7,133253,115890
2723,505,7,133250,115890
2726,502,7,133259,115867
2728,497,7,133247,115869
2732,503,7,133247,115861
2734,508,7,133231,115866
2737,507,7,133224,115873
2739,504,7,133236,115859
2741,504,7,133223,115859
2744,506,7,133231,115859
2746,507,7,133231,115853
2749,508,7,133217,115854
2751,505,7,133216,115851
2754,503,7,133223,115851
2756,506,7,133224,115853
2758,506,7,133222,115853
2761,508,7,133224,115858
2763,506,7,133224,115855
2766,506,7,133227,115871
2768,508,7,133229,115858
2771,506,7,133233,115865
2774,502,7,133243,115862
2777,501,7,133242,115862
2779,504,7,133247,115869
2781,505,7,133253,115869
2784,511,7,133254,115871
2786,517,7,133254,115864
2789,522,7,133263,115864
2791,524,7,133264,115864
2794,523,7,133270,115869
2796,513,7,133279,115868
2798,512,7,133279,115880
2801,512,7,133282,115877
2803,512,7,133289,115877
2806,516,7,133284,115880
2808,513,7,133284,115879
2811,513,7,133284,115881
2813,514,7,133282,115881
2817,513,7,133284,115870
2819,510,7,133284,115872
2821,512,7,133290,115869
2824,511,7,133279,115869
2826,507,7,133282,115872
2829,506,7,133282,115868
2831,508,7,133264,115868
2834,509,7,133274,115871
2836,508,7,133274,115865
2838,509,7,133269,115861
2841,511,7,133262,115861
2843,510,7,133262,115863
2846,517,7,133258,115863
2848,522,7,133256,115857
2851,523,7,133256,115856
2853,523,7,133252,115860
2856,519,7,133225,115861
2859,514,8,133249,115861
2861,508,7,133246,115856
2864,506,7,133246,115854
2866,509,7,133239,115850
2869,508,7,133230,115850
2871,503,8,133243,115854
2874,504,7,133243,115854
2876,507,7,133190,115854
2878,507,7,133224,115853
2881,505,7,133224,115848
2883,508,7,133223,115851
2886,511,7,133223,115851
2888,506,7,133223,115855
2891,510,7,133224,115855
2893,514,8,133232,115848
2896,517,7,133232,115850
2898,515,7,133218,115850
2900,515,7,133224,115850
2904,519,7,133226,115849
2906,521,7,133226,115843
2909,519,7,133226,115852
2911,520,7,133234,115850
2914,527,7,133242,115850
2916,529,7,133242,115857
2918,535,7,133243,115857
2921,539,7,133251,115867
2923,542,7,133251,115867
2926,537,7,133254,115873
2928,532,7,133259,115867
2931,531,7,133267,115869
2933,531,7,133262,115875
2936,531,7,133269,115875
2938,531,7,133299,115872
2940,531,7,133299,115883
2944,528,7,133280,115880
2946,524,7,133291,115880
2949,525,7,133328,115882
2951,525,7,133319,115892
2954,523,7,133319,115887
2956,523,7,133331,115891
2958,519,7,133324,115892
2961,519,7,133341,115903
2963,514,7,133352,115906
2966,507,7,133381,115914
2968,505,7,133371,115910
2971,504,7,133386,115911
2973,499,7,133411,115922
2976,497,7,133416,115924
2978,495,7,133395,115928
2980,493,7,133424,115932
2983,490,7,133426,115932
2985,495,7,133438,115934
2989,498,8,133429,115940
2991,502,7,133440,115946
2994,503,7,133455,115950
2996,500,7,133455,115953
2998,497,7,133471,115957
3001,495,7,133480,115965
3003,494,7,133487,115961
3006,492,7,133496,115962
3008,492,7,133488,115965
3011,490,7,133501,115967
3013,489,7,133511,115965
3016,488,7,133515,115973
3018,486,7,133523,115971
3020,492,7,133542,115981
3023,499,7,133534,115971
3025,501,7,133543,115981
3028,498,7,133549,115990
3031,495,7,133558,115997
3034,496,7,133561,115993
3036,500,7,133576,115994
3038,500,7,133579,116007
3041,499,7,133587,115998
3043,503,7,133588,115999
3046,504,7,133587,116005
3048,509,7,133593,116002
3051,512,7,133598,116017
3053,513,7,133604,116003
3056,516,7,133608,116014
3058,515,7,133609,116003
3060,512,7,133630,116013
3063,512,7,133636,116023
3065,510,7,133642,116019
3068,510,7,133639,116022
3070,510,7,133651,116023
3074,507,7,133646,116035
3076,506,7,133656,116035
3078,511,7,133652,116036
3081,516,7,133669,116030
3083,516,7,133675,116036
3086,515,7,133678,116041
3088,513,7,133674,116043
3091,515,7,133689,116046
3093,517,7,133685,116048
3096,515,7,133691,116047
3098,510,7,133689,116053
3100,510,7,133692,116059
3103,509,7,133695,116053
3105,510,7,133697,116062
3108,509,7,133708,116057
3110,505,7,133710,116067
3113,501,7,133718,116052
3116,503,7,133720,116071
3118,501,7,133725,116068
3121,496,7,133718,116069
3123,498,7,133731,116077
3126,498,7,133737,116083
3128,496,7,133745,116080
3131,499,7,133748,116062
3133,502,7,133755,116084
3136,501,7,133755,116092
3138,497,7,133754,116091
3140,500,7,133753,116087
3143,496,7,133754,116091
3145,492,7,133766,116091
3148,494,7,133770,116091
3150,494,7,133779,116102
3153,500,7,133782,116093
3155,506,7,133778,116101
3158,510,7,133786,116097
3161,511,7,133788,116101
3163,507,7,133790,116105
3166,501,7,133797,116105
3168,501,7,133802,116112
3171,502,7,133802,116113
3173,504,7,133802,116117
3176,505,7,133816,116114
3178,505,7,133814,116123
3180,507,7,133824,116117
3183,509,7,133826,116118
3185,508,7,133822,116113
3188,504,7,133824,116113
3190,501,7,133845,116128
3193,503,7,133845,116122
3195,505,7,133838,116133
3197,504,7,133835,116133
3201,501,7,133857,116128
3203,496,7,133857,116129
3206,500,7,133861,116141
3208,509,7,133870,116138
3211,514,7,133876,116138
3213,513,7,133886,116147
3216,516,7,133886,116147
3218,523,7,133888,116158
3220,522,7,133893,116158
3223,517,7,133907,116159
3225,509,7,133908,116148
3228,510,7,133913,116162
3230,521,7,133917,116160
3233,526,7,133917,116169
3235,527,7,133927,116164
3237,524,7,133935,116164
3240,521,7,133948,116179
3243,517,7,133948,116191
3246,514,7,133957,116183
3248,510,7,133955,116183
3251,506,7,133969,116189
3253,508,7,133970,116179
3256,507,7,133980,116179
3258,506,7,133977,116192
3260,507,7,133988,116192
3263,518,7,133992,116201
3265,538,7,133992,116198
3268,559,7,134005,116202
3270,575,7,134017,116207
3273,584,7,134013,116215
3275,603,7,134013,116213
3277,608,7,134032,116221
3280,604,7,134036,116215
3282,592,7,134036,116228
3286,574,7,134044,116220
3288,560,7,134056,116220
3291,543,7,134072,116231
3293,515,7,134072,116235
3296,501,7,134065,116239
3298,491,7,134080,116239
3300,483,7,134096,116243
3303,479,7,134093,116249
3305,480,8,134102,116249
3308,495,7,134117,116248
3310,498,7,134117,116261
3313,502,7,134124,116261
3315,504,7,134135,116261
3317,500,7,134148,116264
3320,496,7,134153,116266
3322,497,8,134158,116266
3325,493,7,134167,116275
3328,493,8,134181,116275
3331,495,7,134186,116288
3333,508,7,134186,116293
3336,502,7,134194,116297
3338,497,7,134192,116297
3340,492,7,134232,116303
3343,482,7,134232,116305
3345,485,7,134229,116315
3348,488,7,134250,116315
3350,488,7,134263,116313
3353,489,7,134263,116318
3355,491,8,134243,116318
3357,491,7,134289,116329
3360,489,7,134289,116330
3362,492,7,134296,116333
3365,492,8,134319,116333
3367,492,7,134320,116345
3371,497,7,134320,116354
3373,500,8,134341,116354
3376,504,7,134350,116361
3378,509,7,134350,116366
3380,508,7,134361,116368
3383,505,7,134369,116368
3385,497,7,134387,116376
3388,497,7,134387,116377
3390,498,7,134398,116389
3393,498,7,134404,116389
3395,501,7,134423,116390
3397,506,7,134423,116395
3400,500,7,134432,116405
3402,498,7,134434,116405
3405,502,7,134461,116404
3407,504,7,134470,116414
3410,508,7,134470,116418
3412,511,7,134471,116415
3416,509,7,134500,116415
3418,506,7,134500,116427
3420,497,7,134499,116423
3423,498,7,134509,116423
3425,500,7,134517,116430
3428,505,7,134517,116435
3430,505,7,134530,116446
3433,506,7,134524,116446
3435,509,7,134530,116444
3437,514,7,134535,116446
3440,509,7,134544,116451
3442,507,7,134552,116451
3445,509,7,134562,116454
3447,513,7,134564,116465
3450,514,7,134589,116461
3452,511,7,134575,116458
3456,505,7,134574,116458
3458,507,7,134576,116461
3460,512,7,134579,116459
3463,513,7,134584,116461
3465,511,7,134582,116458
3468,506,7,134562,116449
3470,512,7,134536,116447
3473,515,7,134514,116436
3475,514,7,134489,116428
3477,513,7,134443,116412
3480,511,7,134397,116382
3482,509,7,134341,116372
3485,505,7,134286,116347
3487,512,7,134227,116322
3490,517,7,134143,116299
3492,518,7,134082,116278
3495,518,7,134021,116240
3497,516,7,133963,116225
3500,514,7,133885,116206
3503,512,7,133832,116176
3505,509,7,133775,116156
3508,504,7,133736,116136
3510,508,7,133688,116127
3513,515,7,133633,116101
3515,518,7,133575,116082
3517,516,7,133524,116069
3520,515,7,133489,116051
3522,514,7,133448,116030
3525,513,7,133407,116017
3527,513,7,133371,116008
3530,512,7,133331,115983
3532,516,7,133309,115983
3535,516,7,133279,115969
3537,514,7,133251,115951
3539,517,7,133219,115944
3543,520,7,133190,115938
3545,520,7,133170,115932
3548,518,7,133157,115929
3550,517,7,133137,115917
3553,519,7,133118,115908
3555,517,7,133099,115909
3557,512,7,133095,115901
3560,510,7,133090,115894
3562,506,7,133080,115897
3565,506,7,133071,115888
3567,499,7,133059,115890
3570,498,7,133055,115883
3572,499,7,133049,115880
3575,496,7,133046,115881
3577,492,7,133036,115878
3579,492,7,133035,115873
3582,490,7,133045,115879
3585,489,7,133038,115877
3588,488,7,133044,115879
3590,486,7,133051,115878
3593,488,7,133060,115880
3595,487,7,133051,115874
3597,482,7,133052,115878
3600,482,7,133053,115879
3602,479,7,133060,115869
3605,484,7,133065,115883
3607,478,7,133070,115881
3610,479,7,133080,115875
3612,482,7,133088,115892
3615,482,7,133094,115889
3617,480,7,133091,115894
3619,484,7,133096,115901
3622,481,7,133100,115892
3624,478,7,133107,115898
3628,481,7,133110,115898
3630,482,7,133114,115895
3633,488,7,133114,115890
3635,497,7,133114,115904
3637,501,7,133130,115897
3640,503,7,133127,115901
3642,498,7,133129,115906
3645,494,7,133124,115900
3647,493,7,133130,115907
3650,496,7,133129,115902
3652,498,7,133132,115891
3655,499,7,133125,115889
3657,500,7,133114,115894
3659,503,7,133122,115890
3662,503,7,133120,115886
3664,504,7,133109,115889
3667,506,7,133094,115889
3670,506,7,133102,115879
3673,507,7,133102,115878
3675,506,7,133094,115876
3677,501,7,133079,115872
3680,497,7,133064,115871
3682,499,7,133071,115864
3685,500,7,133064,115866
3687,506,7,133051,115850
3690,507,7,133037,115850
3692,504,7,133047,115856
3695,505,7,133047,115852
3697,506,7,133028,115855
3699,505,7,133025,115855
3702,501,7,133024,115847
3704,496,7,133024,115845
3707,499,7,133024,115848
3709,513,7,133025,115840
3713,520,7,133025,115838
3715,524,7,133023,115849
3717,522,7,133020,115849
3720,521,7,133031,115850
3722,518,7,133031,115864
3725,514,7,133034,115852
3727,509,7,133038,115852
3730,504,7,133045,115854
3732,507,7,133052,115857
3735,510,7,133052,115857
3737,514,7,133065,115857
3739,512,7,133065,115862
3742,511,7,133057,115873
3744,512,7,133071,115864
3747,509,7,133081,115875
3749,508,7,133080,115862
3752,507,7,133081,115874
3755,508,7,133081,115869
3757,511,7,133087,115869
3760,513,7,133092,115874
3762,509,7,133092,115871
3765,508,7,133095,115874
3767,509,7,133098,115874
3770,508,7,133094,115868
3772,504,7,133094,115875
3775,509,7,133103,115872
3777,513,7,133101,115872
3779,513,7,133104,115876
3782,507,7,133106,115880
3784,508,7,133106,115880
3787,512,7,133105,115876
3789,513,7,133104,115876
3792,516,7,133110,115875
3794,514,7,133110,115873
3796,514,7,133097,115879
3800,516,7,133088,115878
3802,511,7,133088,115872
3805,512,7,133097,115868
3807,513,7,133092,115868
3810,511,7,133097,115872
3812,513,7,133097,115865
3815,512,7,133099,115861
3817,516,7,133074,115861
3819,520,7,133088,115867
3822,513,7,133088,115860
3824,513,7,133081,115860
3827,513,7,133080,115860
3829,510,7,133074,115863
3832,505,7,133076,115863
3834,507,7,133076,115866
3836,510,7,133070,115863
3840,511,7,133080,115863
3842,510,7,133051,115863
3845,515,7,133051,115865
3847,512,7,133078,115861
3850,508,7,133041,115861
3852,498,7,133041,115863
3855,501,7,133079,115864
3857,506,7,133053,115864
3859,506,7,133086,115864
3862,501,7,133086,115866
3864,504,7,133082,115863
3867,508,7,133083,115863
3869,505,7,133086,115868
3872,508,7,133086,115868
3874,510,7,133071,115868
3876,511,7,133104,115881
3879,507,7,133104,115876
3881,509,7,133119,115874
3885,511,7,133113,115874
3887,505,7,133113,115886
3890,509,7,133113,115886
3892,513,7,133133,115890
3895,517,7,133133,115888
3897,515,7,133140,115890
3899,515,7,133152,115890
3902,519,7,133169,115894
3904,520,7,133169,115900
3907,519,7,133170,115903
3909,520,7,133175,115912
3912,526,7,133191,115912
3914,526,7,133191,115912
3916,533,7,133204,115912
3919,538,7,133235,115916
3921,539,7,133235,115923
3924,535,8,133227,115926
3927,530,7,133237,115931
3930,528,7,133239,115936
3932,527,7,133245,115934
3935,525,7,133256,115934
3937,526,7,133267,115940
3939,527,7,133291,115951
3942,525,7,133288,115951
3944,512,7,133293,115951
3947,512,7,133303,115958
3949,515,7,133326,115963
3952,515,7,133321,115973
3954,507,7,133344,115973
3956,511,7,133337,115970
3959,511,7,133337,115976
3961,509,7,133362,115982
3964,505,7,133378,115983
3966,497,7,133381,115985
3970,500,7,133386,115991
3972,506,7,133397,115994
3975,513,7,133400,115999
3977,512,7,133408,115995
3979,514,7,133411,116004
3982,508,7,133414,116009
3984,506,7,133425,116000
3987,509,7,133433,116009
3989,506,7,133445,116013
3992,503,7,133432,116015
3994,501,7,133455,116014
3996,499,7,133463,116022
3999,495,7,133470,116022
4001,502,7,133475,116029
4004,506,7,133472,116035
4006,508,7,133482,116030
4009,508,7,133491,116033
4012,506,7,133496,116036
4015,503,7,133497,116034
4017,499,7,133514,116040
4019,505,7,133503,116048
4022,510,7,133510,116053
4024,513,7,133515,116048
4027,512,7,133527,116053
4029,508,7,133519,116053
4032,511,7,133530,116057
4034,510,7,133542,116057
4036,513,7,133549,116067
4039,512,7,133548,116063
4041,509,7,133551,116067
4044,514,7,133552,116071
4046,510,7,133555,116071
4049,511,7,133564,116078
4051,515,7,133573,116079
4055,516,7,133573,116073
4057,513,7,133568,116075
4059,514,7,133586,116077
4062,514,7,133595,116081
4064,515,7,133577,116092
4067,515,7,133592,116089
4069,512,7,133595,116089
4072,509,7,133608,116092
4074,504,7,133603,116087
4076,500,7,133608,116096
4079,501,7,133613,116095
4081,500,7,133617,116090
4084,505,7,133616,116104
4086,500,7,133622,116112
4089,501,7,133631,116096
4091,503,7,133637,116108
4094,502,7,133640,116117
4097,499,7,133640,116110
4099,502,7,133644,116116
4102,503,7,133651,116123
4104,501,7,133658,116120
4107,503,7,133660,116107
4109,509,7,133668,116125
4112,507,7,133665,116117
4114,503,7,133675,116137
4116,496,7,133673,116137
4119,493,7,133683,116139
4121,497,7,133673,116144
4124,501,7,133679,116139
4126,501,7,133700,116139
4129,504,7,133707,116120
4131,507,7,133713,116147
4134,503,7,133711,116148
4136,501,7,133711,116144
4139,506,7,133717,116133
4142,504,7,133715,116158
4144,499,7,133737,116150
4147,496,7,133737,116164
4149,490,7,133742,116169
4152,488,7,133753,116149
4154,496,7,133748,116164
4156,497,7,133755,116158
4159,496,7,133762,116169
4161,493,7,133758,116170
4164,492,7,133768,116170
4166,497,7,133783,116183
4169,500,7,133783,116177
4171,507,7,133788,116182
4174,508,7,133795,116182
4176,510,7,133802,116193
4178,511,7,133802,116192
4182,514,7,133820,116199
4184,515,7,133818,116195
4187,517,7,133821,116195
4189,518,7,133837,116204
4192,519,7,133837,116210
4194,520,7,133846,116220
4196,518,7,133855,116220
4199,514,7,133871,116211
4201,508,7,133871,116216
4204,513,7,133870,116224
4206,523,7,133875,116239
4209,526,7,133875,116232
4211,523,7,133889,116232
4214,520,7,133904,116253
4216,520,7,133911,116236
4218,521,7,133910,116236
4221,520,7,133930,116244
4224,521,7,133930,116249
4227,520,7,133933,116252
4229,517,7,133939,116252
4232,513,7,133954,116253
4234,513,7,133965,116265
4236,515,7,133965,116266
4239,523,7,133974,116275
4241,528,7,133983,116275
4244,537,7,133992,116290
4246,555,7,133992,116288
4249,573,7,134009,116290
4251,595,7,134014,116292
4254,604,7,134014,116293
4256,613,7,134033,116303
4258,612,7,134041,116303
4261,591,8,134040,116300
4263,577,7,134040,116312
4267,563,7,134054,116302
4269,552,7,134061,116302
4272,534,8,134081,116311
4274,500,7,134081,116319
4276,484,7,134078,116325
4279,483,8,134102,116330
4281,482,7,134102,116324
4284,486,7,134110,116328
4286,488,7,134114,116332
4289,492,7,134114,116339
4291,499,7,134139,116339
4294,502,7,134148,116341
4296,496,7,134148,116348
4298,496,7,134148,116357
4301,497,7,134163,116357
4303,496,7,134183,116361
4306,488,7,134183,116365
4308,490,7,134195,116373
4312,493,7,134210,116373
4314,489,8,134210,116377
4316,492,7,134236,116390
4319,495,7,134240,116390
4321,494,7,134245,116388
4324,495,7,134245,116391
4326,497,7,134255,116395
4329,496,7,134247,116395
4331,494,7,134296,116402
4334,491,7,134302,116402
4336,490,7,134302,116417
4338,492,7,134273,116422
4341,496,7,134327,116422
4343,500,7,134328,116422
4346,498,7,134328,116431
4348,500,7,134339,116428
4352,500,7,134358,116428
4354,503,7,134358,116446
4356,506,7,134345,116446
4359,506,7,134381,116446
4361,501,7,134394,116452
4364,500,7,134394,116450
4366,503,7,134401,116463
4369,502,7,134401,116463
4371,499,7,134430,116462
4374,493,7,134430,116478
4376,500,7,134441,116478
4378,505,7,134441,116482
4381,503,7,134460,116482
4383,500,7,134477,116485
4386,510,7,134477,116490
4388,508,7,134480,116490
4391,508,7,134478,116490
4393,510,7,134519,116498
4396,513,7,134519,116507
4399,512,7,134509,116504
4401,516,7,134517,116504
4404,523,7,134550,116515
4406,526,7,134555,116520
4409,526,7,134555,116520
4411,516,7,134549,116525
4414,516,7,134555,116524
4416,518,7,134553,116524
4418,517,7,134570,116530
4421,513,7,134581,116535
4423,508,7,134594,116535
4426,510,7,134589,116535
4428,511,7,134599,116549
4431,512,7,134610,116542
4433,511,7,134605,116549
4435,506,7,134626,116549
4439,505,7,134605,116548
4441,510,7,134626,116555
4444,513,7,134607,116548
4446,511,7,134602,116544
4449,517,7,134560,116530
4451,523,7,134522,116530
4454,526,7,134522,116510
4456,522,7,134488,116503
4458,526,7,134426,116482
4461,523,7,134369,116463
4463,523,7,134309,116430
4466,526,7,134243,116406
4468,526,7,134159,116377
4471,520,7,134081,116339
4473,519,7,134009,116317
4475,524,7,133939,116296
4478,527,7,133880,116272
4481,525,7,133818,116251
4484,523,7,133749,116222
4486,519,7,133695,116208
4489,517,7,133647,116186
4491,515,7,133594,116162
4494,515,7,133544,116135
4496,523,7,133488,116123
4498,531,7,133443,116101
4501,535,7,133404,116098
4503,537,7,133353,116078
4506,537,7,133322,116063
4508,536,7,133290,116047
4511,536,7,133259,116040
4513,538,7,133224,116020
4515,536,7,133198,116017
4518,533,7,133173,116007
4520,534,7,133150,115999
4524,530,7,133125,115994
4526,531,7,133109,115983
4529,530,7,133081,115984
4531,530,7,133069,115957
4534,529,7,133060,115964
4536,525,7,133052,115954
4538,524,7,133045,115958
4541,518,7,133028,115950
4543,515,7,133016,115951
4546,511,7,133014,115948
4548,507,7,133006,115939
4551,500,7,133006,115939
4553,500,7,132987,115941
4555,497,7,132996,115936
4558,490,7,132989,115938
4560,489,7,132992,115938
4563,484,7,133000,115938
4566,486,7,132997,115940
4569,492,7,132999,115932
4571,497,7,133005,115932
4574,495,7,133009,115942
4576,489,7,133012,115942
4578,489,7,133014,115944
4581,487,7,133023,115945
4583,487,7,133023,115953
4586,485,7,133029,115944
4588,483,7,133043,115946
4591,488,7,133037,115959
4593,487,7,133057,115957
4595,482,7,133059,115959
4598,484,7,133062,115963
4600,484,7,133070,115965
4603,486,7,133074,115971
4605,485,7,133088,115973
4609,491,7,133093,115971
4611,499,7,133095,115979
4614,497,7,133103,115969
4616,494,7,133108,115974
4618,492,7,133113,115975
4621,492,7,133115,115977
4623,495,7,133115,115982
4626,493,7,133115,115982
4628,496,7,133120,115974
4631,496,7,133125,115979
4633,500,7,133124,115976
4635,500,7,133115,115976
4638,503,7,133109,115983
4640,500,7,133127,115973
4643,503,7,133113,115968
4645,513,7,133112,115970
4648,517,7,133100,115970
4651,515,7,133104,115968
4654,513,7,133104,115964
4656,512,7,133091,115963
4658,513,7,133085,115963
4661,511,7,133084,115950
4663,502,7,133075,115946
4666,502,7,133066,115945
4668,514,7,133066,115944
4671,520,7,133064,115942
4673,521,7,133058,115940
4675,521,7,133058,115942
4678,519,7,133050,115938
4680,516,7,133053,115955
4683,515,7,133047,115955
4685,506,7,133054,115944
4688,504,7,133060,115943
4690,506,7,133056,115942
4694,505,7,133055,115942
4696,505,7,133069,115944
4698,506,7,133069,115948
4701,509,7,133060,115938
4703,509,7,133072,115938
4706,510,7,133085,115961
4708,505,7,133081,115952
4711,502,7,133075,115952
4713,507,7,133087,115956
4715,510,7,133087,115957
4718,512,7,133091,115962
4720,509,7,133097,115962
4723,506,7,133105,115962
4725,504,7,133105,115959
4728,505,7,133106,115962
4730,507,7,133118,115962
4733,506,7,133117,115962
4736,504,7,133110,115970
4738,505,7,133110,115968
4741,507,7,133115,115969
4743,506,7,133113,115969
4746,503,7,133137,115966
4748,502,7,133137,115965
4751,504,7,133125,115973
4753,506,7,133128,115973
4755,505,7,133136,115965
4758,504,7,133128,115966
4760,505,7,133130,115966
4763,507,7,133130,115971
4765,506,7,133130,115972
4768,507,7,133127,115969
4770,507,7,133122,115969
4773,505,7,133116,115966
4775,508,7,133115,115964
4777,508,7,133110,115964
4781,518,7,133120,115962
4783,521,7,133120,115960
4786,520,7,133117,115965
4788,512,7,133113,115967
4791,506,7,133101,115965
4793,506,7,133108,115965
4795,505,7,133118,115960
4798,503,7,133118,115958
4800,505,7,133103,115956
4803,504,7,133079,115956
4805,501,7,133099,115959
4808,494,7,133099,115957
4810,495,7,133092,115957
4813,499,7,133088,115949
4815,509,7,133088,115949
4817,511,7,133089,115957
4820,510,7,133101,115957
4823,504,7,133100,115958
4826,503,7,133100,115954
4828,506,7,133103,115954
4831,506,7,133105,115966
4833,499,7,133105,115955
4835,500,7,133107,115956
4838,502,7,133103,115964
4840,497,7,133103,115959
4843,500,7,133080,115959
4845,505,7,133119,115956
4848,503,7,133119,115971
4850,504,7,133136,115971
4853,508,7,133138,115983
4855,514,7,133138,115983
4857,512,7,133138,115982
4860,513,8,133156,115982
4862,514,7,133163,115988
4866,509,7,133163,115993
4868,510,7,133173,115992
4871,509,7,133173,115992
4873,509,7,133196,115990
4875,513,7,133196,115996
4878,507,7,133197,116005
4880,506,7,133198,116005
4883,509,7,133241,116007
4885,512,7,133230,116017
4888,513,7,133230,116017
4890,517,7,133247,116021
4893,516,7,133247,116021
4895,518,7,133289,116026
4897,521,7,133289,116036
4900,519,7,133274,116042
4902,519,7,133294,116042
4905,523,7,133330,116040
4908,524,7,133321,116057
4911,522,7,133321,116051
4913,524,7,133330,116059
4915,520,7,133338,116061
4918,521,7,133366,116067
4920,517,7,133373,116066
4923,511,7,133383,116075
4925,509,7,133376,116077
4928,507,7,133395,116078
4930,504,7,133408,116086
4933,497,7,133423,116086
4935,496,7,133410,116088
4937,501,7,133438,116095
4940,503,7,133450,116106
4942,500,7,133455,116106
4945,506,7,133453,116111
4947,512,7,133468,116112
4951,513,7,133477,116115
4953,510,7,133474,116127
4955,505,7,133487,116130
4958,502,7,133506,116142
4960,501,7,133514,116132
4963,500,7,133527,116143
4965,499,7,133524,116146
4968,497,7,133536,116153
4970,497,7,133544,116148
4973,496,7,133555,116157
4975,494,7,133565,116159
4977,500,7,133583,116164
4980,506,7,133571,116170
4982,507,7,133591,116171
4985,513,7,133598,116173
4987,510,7,133602,116176
4990,510,7,133604,116178
4993,512,7,133616,116179
4995,511,7,133622,116185
4998,509,7,133626,116191
5000,512,7,133640,116194
5003,513,7,133631,116194
5005,511,7,133642,116209
5008,511,7,133649,116199
5010,513,7,133650,116201
5013,513,7,133654,116207
5015,509,7,133666,116209
5017,510,7,133675,116211
5020,511,7,133676,116216
5022,512,7,133678,116214
5025,510,7,133678,116217
5027,510,7,133690,116219
5030,512,7,133686,116216
5032,512,7,133687,116221
5035,508,7,133686,116221
5038,508,7,133705,116222
5040,506,7,133712,116227
5043,510,7,133703,116227
5045,506,7,133701,116234
5048,507,7,133725,116233
5050,510,7,133724,116238
5053,509,7,133729,116238
5055,508,7,133719,116244
5057,511,7,133728,116239
5060,512,7,133737,116239
5062,514,7,133740,116248
5065,515,7,133738,116249
5067,513,7,133744,116244
5070,510,7,133751,116260
5072,506,7,133759,116262
5074,502,7,133764,116268
5078,505,7,133770,116264
5080,506,7,133764,116277
5083,510,7,133775,116269
5085,509,7,133784,116279
5088,517,7,133791,116280
5090,522,7,133791,116260
5093,521,7,133799,116280
5095,507,7,133798,116290
5097,508,7,133813,116286
5100,508,7,133816,116289
5102,508,7,133820,116295
5105,512,7,133817,116293
5107,510,7,133826,116300
5110,515,7,133823,116302
5112,517,7,133836,116307
5114,520,7,133844,116298
5117,521,7,133843,116309
5120,513,7,133851,116312
5123,506,7,133859,116312
5125,506,7,133863,116315
5128,506,7,133862,116318
5130,509,7,133864,116314
5133,510,7,133884,116317
5135,510,7,133887,116324
5137,512,7,133894,116323
5140,513,7,133894,116329
5142,514,7,133904,116329
5145,516,7,133903,116329
5147,515,7,133906,116330
5150,515,7,133906,116340
5152,514,7,133910,116331
5154,509,7,133916,116337
5157,506,7,133928,116344
5159,508,7,133937,116353
5163,507,7,133937,116348
5165,503,7,133949,116344
5168,500,7,133949,116344
5170,503,7,133975,116362
5173,503,7,133975,116372
5175,503,7,133977,116378
5177,502,7,133993,116378
5180,500,7,134003,116375
5182,495,7,134007,116371
5185,499,7,134010,116382
5187,513,7,134021,116374
5190,521,7,134021,116383
5192,526,7,134031,116399
5194,521,7,134047,116394
5197,516,7,134058,116411
5199,515,7,134062,116411
5202,509,7,134076,116399
5204,508,7,134076,116412
5208,512,7,134088,116412
5210,508,7,134100,116414
5213,507,7,134100,116421
5215,511,7,134115,116430
5217,507,7,134125,116430
5220,507,7,134147,116434
5222,512,7,134144,116434
5225,514,7,134162,116443
5227,510,7,134162,116450
5230,509,7,134161,116450
5232,509,7,134180,116450
5234,507,7,134189,116455
5237,505,7,134184,116454
5239,507,7,134202,116454
5242,507,7,134214,116469
5244,510,7,134214,116470
5248,515,7,134227,116475
5250,518,7,134238,116475
5253,523,7,134242,116483
5255,529,7,134255,116480
5257,533,7,134262,116480
5260,563,7,134268,116488
5262,583,7,134268,116490
5265,601,7,134287,116499
5267,610,8,134294,116507
5270,611,7,134311,116500
5272,610,7,134310,116500
5274,605,7,134325,116502
5277,582,8,134325,116512
5279,564,7,134325,116524
5282,548,7,134335,116524
5284,526,8,134367,116525
5287,490,7,134367,116533
5289,481,8,134385,116533
5293,478,8,134395,116537
5295,482,7,134395,116547
5297,482,7,134409,116553
5300,486,8,134391,116557
5302,492,7,134391,116558
5305,497,7,134439,116558
5307,502,8,134458,116565
5310,505,8,134458,116572
5312,506,8,134448,116572
5314,505,7,134493,116584
5317,497,7,134493,116589
5319,498,7,134504,116598
5322,498,8,134526,116598
5324,498,7,134534,116605
5327,502,7,134534,116607
5329,505,8,134547,116607
5332,509,7,134569,116619
5335,512,7,134569,116624
5337,512,7,134568,116631
5340,509,8,134568,116643
5342,496,7,134568,116641
5345,496,8,134617,116641
5347,503,7,134615,116639
5350,512,7,134615,116657
5352,511,7,134633,116657
5354,507,8,134653,116657
5357,499,7,134653,116667
5359,500,7,134665,116670
5362,501,8,134674,116670
5364,495,7,134674,116678
5367,499,7,134699,116678
5369,502,7,134706,116675
5372,507,7,134706,116689
5374,506,7,134720,116686
5377,506,7,134732,116686
5380,508,7,134754,116696
5382,511,7,134759,116703
5385,512,7,134759,116705
5387,507,7,134771,116711
5390,509,8,134785,116711
5392,511,7,134785,116722
5394,520,7,134807,116722
5397,526,7,134834,116724
5399,530,7,134834,116740
5402,527,7,134831,116744
5404,524,7,134835,116750
5407,523,7,134847,116746
5409,523,7,134857,116755
5412,523,7,134872,116755
5414,524,7,134882,116761
5416,526,7,134907,116772
5420,525,7,134895,116772
5422,516,7,134914,116777
5425,513,7,134936,116777
5427,516,7,134925,116774
5430,521,7,134951,116788
5432,523,7,134951,116802
5434,522,7,134955,116790
5437,523,7,134975,116793
5439,520,7,134985,116805
5442,513,7,134985,116810
5444,510,7,134997,116811
5447,508,7,135004,116815
5449,503,7,135017,116817
5452,500,7,135014,116820
5454,498,7,135015,116832
5456,498,7,135010,116821
5459,499,7,135005,116807
5462,498,7,134998,116810
5465,497,7,134980,116803
5467,498,7,134960,116783
5470,498,7,134925,116773
5472,498,7,134882,116755
5474,504,7,134828,116734
5477,507,7,134753,116703
5479,514,7,134666,116674
5482,520,7,134588,116648
5484,523,7,134494,116609
5487,522,7,134391,116564
5489,518,7,134285,116529
5492,520,7,134209,116503
5494,518,7,134121,116471
5496,520,7,134033,116441
5499,522,7,133948,116416
5501,523,7,133893,116389
5505,521,7,133844,116371
5507,521,7,133781,116349
5510,524,7,133736,116331
5512,525,7,133679,116308
5514,522,7,133635,116293
5517,523,7,133596,116278
5519,521,7,133557,116261
5522,525,7,133504,116247
5524,521,7,133473,116236
5527,521,7,133438,116224
5529,524,7,133405,116218
5532,523,7,133378,116197
5534,521,7,133352,116194
5536,521,7,133322,116177
5539,520,7,133299,116159
5541,519,7,133287,116171
5544,518,7,133261,116150
5547,514,7,133245,116142
5550,509,7,133233,116144
5552,503,7,133218,116137
5554,497,7,133208,116136
5557,496,7,133199,116134
5559,494,7,133202,116127
5562,494,7,133186,116132
5564,487,7,133186,116128
5567,487,7,133193,116110
5569,489,7,133185,116126
5572,487,7,133187,116123
5574,482,7,133185,116127
5576,483,7,133191,116134
5579,483,7,133188,116127
5581,480,7,133194,116130
5584,481,7,133194,116112
5586,482,7,133203,116130
5590,482,7,133201,116135
5592,481,7,133206,116139
5594,484,7,133222,116131
5597,485,7,133234,116139
5599,485,7,133238,116137
5602,489,7,133245,116142
5604,488,7,133258,116153
5607,493,7,133262,116148
5609,495,7,133270,116160
5612,497,7,133286,116154
5614,498,7,133294,116139
5616,495,7,133293,116161
5619,482,7,133303,116172
5621,480,7,133319,116166
5624,486,7,133319,116170
5626,493,7,133335,116172
5629,492,7,133337,116177
5632,483,7,133347,116183
5634,484,7,133351,116180
5637,486,7,133356,116179
5639,486,7,133360,116182
5642,484,7,133373,116182
5644,488,7,133383,116191
5647,490,7,133385,116187
5649,495,7,133377,116190
5652,496,7,133382,116190
5654,497,7,133382,116193
5656,498,7,133382,116180
5659,500,7,133379,116183
5661,500,7,133373,116183
5664,503,7,133385,116195
5666,499,7,133375,116181
5669,496,7,133374,116181
5671,501,7,133371,116181
5673,505,7,133371,116177
5677,508,7,133368,116176
5679,503,7,133361,116179
5682,500,7,133364,116193
5684,500,7,133364,116172
5687,501,7,133354,116167
5689,504,7,133358,116167
5692,498,7,133348,116167
5694,497,7,133344,116159
5696,501,7,133342,116159
5699,502,7,133344,116171
5701,499,7,133344,116171
5704,498,7,133345,116169
5706,496,7,133354,116169
5709,492,7,133361,116169
5711,494,7,133361,116172
5713,497,7,133360,116176
5716,502,7,133370,116178
5719,501,7,133374,116178
5722,496,7,133378,116184
5724,500,7,133378,116182
5727,502,7,133389,116192
5729,503,7,133389,116184
5732,504,7,133389,116188
5734,507,7,133400,116190
5736,507,7,133400,116190
5739,501,7,133406,116190
5741,499,7,133400,116190
5744,509,7,133410,116192
5746,511,7,133410,116189
5749,512,7,133417,116199
5751,512,7,133422,116199
5753,508,7,133410,116192
5756,504,7,133415,116192
5758,505,8,133421,116192
5762,502,7,133423,116191
5764,501,7,133423,116191
5767,503,7,133417,116199
5769,517,7,133417,116197
5772,512,7,133414,116200
5774,508,7,133400,116200
5776,502,7,133424,116193
5779,491,7,133424,116192
5781,492,7,133409,116188
5784,494,7,133414,116188
5786,493,7,133412,116191
5789,493,7,133412,116182
5791,495,7,133383,116182
5793,495,7,133406,116187
5796,493,7,133406,116183
5798,494,7,133407,116190
5801,498,7,133396,116188
5804,494,7,133396,116180
5807,498,7,133390,116188
5809,500,7,133388,116188
5812,499,7,133393,116185
5814,503,7,133393,116179
5816,506,7,133384,116181
5819,507,7,133387,116181
5821,504,7,133387,116181
5824,501,7,133387,116187
5826,503,7,133386,116182
5829,501,7,133387,116182
5831,496,7,133398,116188
5833,496,7,133398,116190
5836,496,7,133385,116191
5838,497,7,133390,116191
5841,504,7,133412,116190
5843,507,7,133397,116191
5847,511,7,133397,116196
5849,513,7,133396,116196
5852,512,7,133404,116196
5854,504,7,133404,116200
5856,501,7,133412,116203
5859,499,7,133423,116203
5861,495,7,133424,116199
5864,496,7,133424,116209
5866,499,7,133441,116210
5869,500,7,133432,116210
5871,503,7,133455,116216
5873,510,7,133455,116224
5876,505,7,133458,116232
5878,505,7,133464,116232
5881,508,7,133503,116232
5883,512,7,133494,116233
5886,513,7,133494,116244
5889,517,7,133511,116244
5892,516,7,133514,116244
5894,517,7,133527,116251
5896,520,7,133552,116258
5899,520,7,133563,116258
5901,513,7,133562,116261
5904,512,7,133581,116267
5906,509,7,133597,116272
5909,506,7,133606,116279
5911,499,7,133610,116285
5913,498,7,133631,116281
5916,496,7,133620,116290
5918,495,7,133652,116292
5921,494,7,133660,116295
5923,494,7,133675,116300
5926,501,7,133673,116305
5928,508,7,133688,116314
5932,511,7,133704,116314
5934,510,7,133712,116321
5936,507,7,133715,116324
5939,504,7,133733,116327
5941,500,7,133746,116329
5944,494,7,133763,116347
5946,497,7,133771,116341
5949,504,7,133771,116344
5951,508,7,133774,116350
5953,505,7,133788,116354
5956,503,7,133801,116364
5958,502,7,133807,116355
5961,499,7,133832,116373
5963,502,7,133828,116368
5966,509,7,133846,116371
5968,516,7,133847,116374
5971,516,7,133863,116381
5974,510,7,133875,116386
5976,514,7,133876,116395
5979,518,7,133889,116393
5981,519,7,133900,116392
5984,514,7,133906,116400
5986,508,7,133915,116403
5989,508,7,133928,116413
5991,510,7,133930,116405
5993,510,7,133934,116417
5996,509,7,133951,116418
5998,511,7,133959,116412
6001,513,7,133965,116423
6003,512,7,133960,116422
6006,514,7,133971,116425
6008,516,7,133975,116428
6011,515,7,133989,116430
6013,511,7,133986,116433
6016,511,7,133999,116435
6019,511,7,134000,116437
6021,512,7,133997,116441
6024,510,7,134009,116442
6026,509,7,134017,116443
6029,512,7,134017,116451
6031,511,7,134019,116448
6033,507,7,134019,116447
6036,507,7,134024,116458
6038,504,7,134034,116445
6041,508,7,134035,116457
6043,502,7,134037,116456
6046,503,7,134050,116458
6048,506,7,134058,116465
6051,506,7,134059,116472
6053,503,7,134059,116464
6055,507,7,134053,116465
6059,510,7,134058,116479
6061,511,7,134072,116477
6064,508,7,134067,116464
6066,506,7,134075,116459
6069,512,7,134066,116481
6071,510,7,134077,116482
6073,506,7,134086,116487
6076,509,7,134088,116483
6078,509,7,134093,116486
6081,513,7,134101,116485
6083,513,7,134104,116485
6086,518,7,134101,116488
6088,522,7,134106,116496
6091,525,7,134115,116492
6093,527,7,134120,116478
6095,524,7,134122,116508
6098,515,7,134132,116512
6100,507,7,134132,116510
6104,509,7,134140,116514
6106,506,7,134150,116509
6109,510,7,134142,116513
6111,520,7,134147,116507
6113,530,7,134143,116502
6116,533,7,134153,116504
6118,526,7,134144,116506
6121,518,7,134159,116506
6123,510,7,134170,116508
6126,508,7,134170,116512
6128,510,7,134169,116515
6131,508,7,134172,116515
6133,507,7,134181,116522
6135,507,7,134181,116522
6138,507,7,134194,116525
6140,507,7,134199,116519
6144,507,7,134206,116519
6146,506,7,134224,116535
6149,507,7,134224,116548
6151,507,7,134214,116530
6153,504,7,134227,116530
6156,500,7,134247,116535
6158,501,7,134247,116557
6161,500,7,134238,116545
6163,497,7,134254,116553
6166,494,7,134265,116553
6168,497,7,134270,116562
6171,497,7,134270,116574
6173,498,7,134280,116562
6175,496,7,134288,116562
6178,494,7,134311,116573
6180,497,7,134311,116578
6183,499,7,134314,116578
6185,498,7,134325,116578
6189,495,7,134340,116593
6191,496,7,134345,116598
6193,498,7,134345,116600
6196,502,7,134365,116600
6198,504,7,134369,116600
6201,506,7,134381,116615
6203,504,7,134381,116613
6206,503,7,134393,116619
6208,504,7,134407,116620
6211,503,7,134407,116628
6213,507,7,134422,116632
6215,507,7,134438,116632
6218,500,7,134445,116645
6220,498,7,134445,116648
6223,504,7,134458,116651
6225,507,7,134476,116651
6228,506,7,134492,116655
6231,500,7,134492,116653
6233,505,7,134488,116664
6236,508,7,134514,116666
6238,503,7,134514,116663
6241,503,7,134528,116672
6243,504,7,134541,116672
6246,502,7,134559,116677
6248,504,7,134559,116685
6251,506,7,134557,116689
6253,507,7,134567,116689
6255,506,7,134593,116693
6258,502,7,134600,116704
6260,497,7,134600,116702
6263,505,7,134609,116720
6265,516,7,134619,116720
6268,527,7,134645,116717
6270,545,7,134645,116728
6273,564,7,134648,116729
6276,579,7,134682,116729
6278,588,7,134670,116735
6281,594,7,134670,116739
6283,591,7,134669,116739
6286,584,7,134715,116742
6288,558,7,134715,116747
6291,542,7,134719,116757
6293,523,7,134739,116759
6295,502,7,134739,116757
6298,491,7,134723,116757
6300,483,7,134764,116766
6303,469,7,134764,116769
6305,470,7,134772,116777
6308,471,7,134802,116777
6310,477,7,134802,116792
6312,483,7,134790,116795
6316,484,7,134824,116795
6318,482,7,134836,116799
6321,483,7,134836,116803
6323,487,7,134839,116809
6326,486,7,134846,116809
6328,483,7,134873,116813
6331,477,7,134873,116824
6333,482,7,134882,116828
6335,487,7,134893,116831
6338,485,7,134917,116831
6340,482,7,134937,116840
6343,490,7,134937,116843
6345,488,7,134937,116858
6348,488,7,134944,116858
6350,491,7,134977,116849
6352,497,7,134977,116864
6355,493,7,134985,116870
6358,492,7,134983,116870
6361,495,7,135015,116876
6363,498,7,135024,116890
6366,499,7,135024,116879
6368,502,7,135033,116888
6371,505,7,135038,116881
6373,507,7,135044,116901
6375,503,7,135059,116904
6378,497,7,135071,116906
6380,496,7,135088,116906
6383,499,7,135089,116914
6385,501,7,135107,116910
6388,500,7,135108,116918
6390,497,7,135125,116931
6392,490,7,135155,116931
6395,489,7,135140,116932
6397,493,7,135169,116931
6401,495,7,135184,116941
6403,492,7,135184,116952
6406,496,7,135200,116952
6408,505,7,135202,116956
6411,512,7,135202,116954
6413,510,7,135215,116963
6415,514,7,135221,116968
6418,508,7,135235,116977
6420,506,7,135242,116980
6423,508,7,135262,116983
6425,504,7,135258,116982
6428,499,7,135276,116988
6430,497,7,135284,116989
6432,494,7,135289,116999
6435,493,7,135290,117003
6437,492,7,135307,116999
6440,490,7,135318,117004
6443,486,7,135332,117017
6446,489,7,135352,117015
6448,497,7,135356,117020
6451,500,7,135361,117021
6453,498,7,135369,117025
6455,504,7,135375,117033
6458,509,7,135378,117040
6460,512,7,135381,117036
6463,508,7,135391,117036
6465,503,7,135404,117042
6468,503,7,135392,117047
6470,506,7,135393,117040
6472,505,7,135384,117040
6475,504,7,135378,117032
6477,507,7,135367,117020
6480,508,7,135331,117007
6482,510,7,135292,116996
6486,516,7,135253,116985
6488,520,7,135198,116951
6491,520,7,135137,116932
6493,518,7,135056,116897
6495,513,7,134977,116862
6498,513,7,134881,116824
6500,509,7,134772,116794
6503,510,7,134666,116747
6505,509,7,134555,116712
6508,506,7,134448,116671
6510,503,7,134356,116636
6512,507,7,134261,116602
6515,508,7,134174,116588
6517,511,7,134119,116556
6520,513,7,134067,116537
6522,511,7,134000,116519
6525,514,7,133960,116498
6528,517,7,133912,116481
6531,516,7,133872,116465
6533,512,7,133818,116453
6535,514,7,133784,116432
6538,514,7,133749,116416
6540,511,7,133710,116408
6543,512,7,133691,116397
6545,518,7,133659,116390
6548,514,7,133632,116356
6550,509,7,133616,116377
6552,501,7,133584,116352
6555,495,7,133562,116352
6557,497,7,133539,116350
6560,497,7,133529,116341
6562,495,7,133515,116336
6565,496,7,133503,116306
6567,497,7,133502,116332
6571,490,7,133485,116329
6573,487,7,133475,116314
6575,489,7,133477,116324
6578,483,7,133480,116328
6580,475,7,133475,116292
6583,470,7,133468,116301
6585,463,7,133464,116326
6588,460,7,133477,116317
6590,466,7,133472,116322
6592,466,7,133483,116307
6595,463,7,133493,116331
6597,459,7,133488,116322
6600,457,7,133493,116322
6602,463,7,133508,116324
6605,466,7,133515,116339
6607,472,7,133522,116339
6610,475,7,133533,116336
6612,477,7,133549,116343
6615,481,7,133552,116351
6618,483,7,133566,116350
6620,482,7,133573,116354
6623,479,7,133589,116354
6625,480,7,133600,116366
6628,480,7,133600,116362
6630,488,7,133616,116377
6632,494,7,133623,116377
6635,494,7,133643,116380
6637,487,7,133643,116379
6640,490,7,133656,116375
6642,499,7,133668,116394
6645,500,7,133668,116389
6647,495,7,133698,116389
6650,492,7,133695,116417
6652,493,7,133717,116403
6654,495,7,133721,116403
6658,493,7,133729,116404
6660,490,7,133729,116404
6663,488,7,133733,116409
6665,484,7,133745,116413
6668,481,7,133755,116413
6670,485,7,133746,116421
6672,485,7,133756,116421
6675,486,7,133756,116414
6677,486,7,133756,116411
6680,491,7,133760,116412
6682,500,7,133759,116426
6685,501,7,133759,116420
6687,500,7,133760,116417
6690,498,7,133762,116417
6692,499,7,133765,116426
6694,497,7,133765,116416
6697,496,7,133761,116418
6700,493,7,133765,116418
6703,490,7,133779,116414
6705,489,7,133779,116421
6708,491,7,133773,116427
6710,493,7,133776,116427
6712,492,7,133801,116432
6715,490,7,133793,116430
6717,491,7,133800,116430
6720,493,7,133807,116433
6722,492,7,133807,116442
6725,493,7,133816,116438
6727,493,7,133830,116438
6730,491,7,133836,116452
6732,494,7,133840,116450
6734,494,7,133846,116450
6737,498,7,133849,116452
6739,499,7,133849,116456
6743,501,7,133863,116466
6745,505,7,133863,116466
6748,508,7,133877,116449
6750,502,7,133877,116462
6752,500,7,133874,116461
6755,500,7,133874,116461
6757,498,7,133889,116460
6760,488,7,133889,116461
6762,489,7,133874,116461
6765,492,7,133877,116458
6767,491,7,133851,116458
6770,486,7,133851,116462
6772,484,7,133844,116462
6774,482,7,133875,116457
6777,480,7,133876,116455
6779,480,7,133870,116455
6782,493,7,133870,116457
6785,499,7,133861,116457
6788,501,7,133849,116455
6790,496,7,133849,116451
6792,496,7,133854,116453
6795,497,7,133836,116453
6797,494,7,133846,116448
6800,493,7,133846,116449
6802,495,7,133838,116448
6805,494,7,133804,116448
6807,491,7,133823,116443
6810,483,7,133823,116440
6812,486,7,133813,116440
6814,491,7,133812,116446
6817,501,7,133812,116439
6819,501,7,133801,116437
6822,502,7,133798,116430
6824,505,7,133796,116433
6828,507,7,133793,116433
6830,512,7,133801,116432
6832,515,7,133801,116434
6835,512,7,133785,116427
6837,512,7,133785,116427
6840,517,7,133786,116431
6842,519,7,133796,116428
6845,518,7,133796,116430
6847,505,7,133788,116428
6850,504,7,133793,116428
6852,503,7,133793,116433
6854,503,7,133798,116438
6857,506,7,133800,116439
6859,514,7,133810,116443
6862,512,7,133810,116444
6864,507,7,133809,116446
6867,502,7,133823,116444
6870,507,7,133829,116453
6872,504,7,133837,116453
6875,502,7,133840,116456
6877,505,7,133849,116460
6880,506,7,133859,116463
6882,505,7,133871,116471
6885,500,7,133870,116472
6887,501,7,133886,116472
6890,507,7,133898,116479
6892,510,7,133905,116484
6894,510,7,133927,116486
6897,506,7,133947,116490
6899,508,7,133950,116493
6902,509,7,133950,116507
6904,512,7,133967,116508
6907,513,7,133981,116513
6909,509,7,133982,116525
6912,505,7,134001,116522
6915,502,7,134008,116532
6917,501,7,134029,116530
6920,500,7,134040,116540
6922,500,7,134046,116540
6925,498,7,134059,116543
6927,497,7,134077,116546
6930,496,7,134093,116563
6932,494,7,134112,116560
6934,502,7,134131,116568
6937,507,7,134131,116574
6939,509,7,134130,116574
6942,510,7,134154,116573
6944,509,7,134166,116587
6947,511,7,134182,116589
6949,514,7,134190,116595
6951,513,7,134215,116603
6955,510,7,134223,116615
6957,513,7,134240,116612
6960,515,7,134241,116616
6962,513,7,134252,116617
6965,512,7,134269,116624
6967,516,7,134283,116632
6970,515,7,134293,116639
6972,511,7,134314,116638
6974,513,7,134316,116648
6977,513,7,134333,116654
6979,515,7,134341,116653
6982,513,7,134354,116668
6984,512,7,134366,116660
6987,515,7,134382,116675
6989,515,7,134383,116682
6991,512,7,134390,116679
6994,512,7,134419,116687
6996,510,7,134424,116695
7000,515,7,134431,116701
7002,510,7,134431,116702
7005,510,7,134451,116693
7007,513,7,134460,116709
7010,512,7,134472,116705
7012,510,7,134472,116709
7014,512,7,134469,116711
7017,513,7,134495,116712
7019,514,7,134501,116730
7022,512,7,134503,116716
7024,511,7,134516,116712
7027,516,7,134519,116727
7029,516,7,134524,116731
7031,510,7,134525,116735
7034,511,7,134537,116732
7036,509,7,134539,116747
7040,512,7,134546,116742
7042,505,7,134561,116749
7045,506,7,134563,116727
7047,510,7,134573,116748
7050,511,7,134573,116758
7052,509,7,134576,116757
7054,512,7,134578,116758
7057,515,7,134583,116757
7059,514,7,134600,116757
7062,515,7,134594,116729
7064,520,7,134601,116765
7067,518,7,134617,116738
7069,514,7,134619,116763
7071,507,7,134613,116775
7074,509,7,134619,116778
7076,513,7,134634,116756
7079,514,7,134634,116774
7081,511,7,134631,116777
7085,511,7,134638,116782
7087,513,7,134651,116784
7090,519,7,134651,116787
7092,524,7,134646,116794
7094,528,7,134661,116789
7097,531,7,134664,116782
7099,530,7,134661,116786
7102,526,7,134667,116786
7104,520,7,134687,116801
7107,522,7,134687,116796
7109,522,7,134691,116805
7111,521,7,134690,116805
7114,519,7,134702,116805
7116,512,7,134702,116812
7119,515,7,134708,116812
7121,525,7,134709,116808
7124,530,7,134717,116808
7127,528,7,134727,116814
7130,526,7,134727,116815
7132,527,7,134735,116837
7134,529,7,134731,116837
7137,527,7,134746,116820
7139,518,7,134751,116826
7142,518,7,134748,116834
7144,527,7,134750,116828
7147,533,7,134750,116826
7149,534,7,134766,116834
7151,530,7,134770,116834
7154,526,7,134789,116844
7156,522,7,134789,116843
7159,519,7,134785,116848
7161,516,7,134790,116848
7164,511,7,134798,116840
7166,514,7,134803,116864
7170,513,7,134814,116864
7172,510,7,134825,116863
7174,510,7,134834,116863
7177,516,7,134834,116870
7179,521,7,134834,116867
7182,525,7,134849,116872
7184,529,7,134866,116877
7187,528,7,134871,116877
7189,517,7,134882,116884
7191,515,7,134882,116884
7194,520,7,134887,116889
7196,523,7,134900,116889
7199,523,7,134913,116899
7201,519,7,134913,116900
7204,524,7,134925,116903
7206,526,7,134942,116903
7209,525,7,134952,116904
7212,516,7,134952,116915
7214,515,7,134954,116918
7217,518,7,134974,116928
7219,516,7,134980,116934
7222,514,7,134980,116934
7224,514,7,135009,116934
7227,513,7,135008,116937
7229,514,7,135008,116938
7231,517,7,135021,116951
7234,516,7,135046,116953
7236,510,7,135046,116957
7239,512,7,135037,116957
7241,518,7,135065,116961
7244,514,7,135065,116956
7246,515,8,135085,116956
7249,517,8,135090,116972
7251,523,7,135090,116974
7254,525,7,135105,116980
7257,523,7,135128,116980
7259,518,7,135135,116986
7262,519,7,135135,116992
7264,525,7,135120,116992
7267,532,7,135157,117004
7269,546,7,135157,117002
7271,564,7,135168,117008
7274,579,7,135180,117008
7276,591,7,135206,117013
7279,608,8,135206,117020
7281,611,8,135210,117025
7284,606,7,135191,117025
7286,594,8,135239,117026
7289,563,8,135239,117036
7291,555,7,135248,117036
7293,546,8,135260,117044
7297,524,8,135260,117051
7299,508,8,135270,117060
7302,499,7,135289,117062
7304,498,7,135292,117069
7307,501,7,135302,117069
7309,505,7,135318,117072
7311,510,8,135318,117070
7314,509,7,135338,117075
7316,514,7,135339,117075
7319,521,8,135348,117074
7321,524,7,135371,117088
7324,519,7,135371,117087
7326,513,7,135373,117092
7329,509,8,135399,117092
7331,505,7,135399,117099
7333,497,7,135410,117106
7336,499,7,135422,117106
7339,503,7,135422,117108
7342,508,7,135437,117120
7344,509,7,135467,117120
7347,510,8,135454,117120
7349,513,7,135456,117125
7351,519,7,135472,117136
7354,513,7,135482,117141
7356,511,7,135500,117141
7359,513,7,135509,117150
7361,518,7,135517,117152
7364,519,7,135540,117154
7366,517,7,135563,117163
7369,510,7,135544,117163
7371,512,7,135554,117169
7373,517,7,135584,117167
7376,518,7,135584,117171
7378,512,7,135601,117184
7382,518,7,135613,117177
7384,522,7,135613,117194
7387,522,7,135623,117186
7389,527,7,135632,117195
7391,524,7,135644,117197
7394,519,7,135660,117214
7396,516,7,135669,117208
7399,513,7,135680,117213
7401,511,7,135690,117213
7404,509,7,135707,117220
7406,507,7,135713,117222
7409,507,7,135721,117229
7411,503,7,135733,117238
7413,510,7,135742,117235
7416,516,7,135742,117239
7418,518,7,135756,117242
7421,523,7,135784,117254
7424,524,7,135795,117259
7427,521,7,135795,117263
7429,518,7,135801,117257
7431,515,7,135810,117269
7434,517,7,135818,117265
7436,523,7,135839,117272
7439,527,7,135842,117281
7441,529,7,135845,117281
7444,527,7,135864,117285
7446,529,7,135866,117292
7449,529,7,135879,117292
7451,524,7,135887,117290
7453,525,7,135897,117296
7456,526,7,135885,117298
7458,528,7,135900,117307
7461,526,7,135910,117306
7463,526,7,135918,117304
7467,529,7,135920,117305
7469,529,7,135922,117308
7471,525,7,135930,117308
7474,526,7,135934,117310
7476,524,7,135933,117311
7479,529,7,135905,117301
7481,525,7,135901,117298
7484,525,7,135888,117293
7486,527,7,135857,117279
7489,526,7,135828,117259
7491,524,7,135769,117248
7493,527,7,135719,117213
7496,529,7,135656,117181
7498,527,7,135571,117169
7501,531,7,135488,117118
7503,537,7,135394,117085
7506,536,7,135285,117050
7508,532,7,135172,117006
7511,539,7,135073,116971
7514,541,7,134951,116929
7516,540,7,134843,116893
7519,543,7,134728,116854
7521,541,7,134625,116822
7524,542,7,134542,116785
7526,537,7,134465,116769
7529,544,7,134398,116744
7531,546,7,134347,116720
7533,544,7,134301,116704
7536,545,7,134245,116681
7538,542,7,134205,116672
7541,542,7,134167,116660
7543,535,7,134140,116650
7546,539,7,134103,116626
7548,542,7,134069,116625
7550,543,7,134051,116608
7554,543,7,134025,116603
7556,534,7,133990,116590
7559,525,7,133972,116590
7561,520,7,133966,116581
7564,519,7,133945,116575
7566,519,7,133934,116565
7569,516,7,133917,116559
7571,512,7,133907,116559
7573,512,7,133908,116546
7576,510,7,133892,116555
7578,507,7,133888,116546
7581,507,7,133883,116546
7583,504,7,133888,116546
7586,504,7,133888,116548
7588,501,7,133883,116555
7590,496,7,133889,116542
7593,492,7,133893,116557
7596,483,7,133893,116561
7599,487,7,133904,116551
7601,498,7,133914,116556
7604,504,7,133914,116556
7606,504,7,133933,116560
7609,504,7,133933,116577
7611,502,7,133945,116589
7613,499,7,133957,116589
7616,494,7,133975,116585
7618,487,7,133984,116580
7621,489,7,133991,116591
7623,502,7,134012,116588
7626,509,7,134012,116600
7628,512,7,134021,116599
7630,510,7,134045,116599
7633,510,7,134058,116624
7635,507,7,134058,116631
7639,504,7,134086,116623
7641,499,7,134103,116629
7644,495,7,134111,116629
7646,498,7,134125,116644
7649,498,7,134141,116644
7651,500,7,134157,116657
7653,499,7,134157,116659
7656,500,7,134183,116668
7658,501,7,134194,116667
7661,499,7,134194,116673
7663,500,7,134219,116673
7666,501,7,134237,116682
7668,497,7,134237,116682
7670,503,7,134242,116688
7673,508,7,134249,116692
7675,505,7,134249,116694
7678,505,7,134268,116698
7681,505,7,134283,116698
7684,503,7,134296,116702
7686,507,7,134306,116709
7689,508,7,134306,116712
7691,510,7,134313,116715
7693,510,7,134320,116715
7696,514,7,134330,116717
7698,510,7,134330,116717
7701,511,7,134336,116730
7703,513,7,134358,116730
7706,512,7,134364,116735
7708,506,7,134364,116735
7710,512,7,134375,116746
7713,516,7,134392,116749
7715,511,7,134392,116744
7718,512,7,134402,116744
7720,515,7,134430,116758
7724,509,7,134430,116755
7726,508,7,134448,116755
7729,511,7,134463,116770
7731,516,7,134463,116780
7733,517,7,134473,116777
7736,516,7,134473,116777
7738,510,7,134501,116779
7741,508,7,134501,116783
7743,511,7,134504,116783
7746,511,7,134508,116795
7748,508,7,134508,116800
7750,509,7,134521,116796
7753,510,7,134518,116797
7755,506,7,134518,116798
7758,509,7,134486,116798
7760,514,7,134524,116792
7763,511,7,134524,116788
7766,512,7,134511,116788
7769,514,7,134503,116799
7771,519,7,134503,116780
7773,519,7,134496,116782
7776,517,7,134481,116782
7778,510,7,134484,116783
7781,509,7,134484,116775
7783,510,7,134463,116767
7786,510,7,134464,116767
7788,514,7,134448,116763
7790,519,7,134448,116757
7793,512,7,134418,116759
7795,510,7,134416,116759
7798,514,7,134399,116757
7800,516,7,134381,116750
7803,520,7,134381,116740
7805,523,7,134373,116740
7809,521,7,134365,116740
7811,513,7,134365,116729
7813,510,7,134350,116720
7816,509,7,134330,116720
7818,505,7,134321,116725
7821,505,7,134321,116721
7823,507,7,134324,116725
7826,508,7,134315,116725
7828,511,7,134306,116725
7830,516,7,134306,116714
7833,515,7,134306,116715
7835,519,7,134294,116715
7838,523,7,134291,116717
7840,526,7,134316,116724
7843,526,7,134316,116723
7845,517,7,134297,116722
7848,516,7,134300,116717
7851,517,7,134304,116720
7853,516,7,134299,116717
7856,514,7,134307,116715
7858,511,7,134319,116729
7861,508,7,134336,116729
7863,503,7,134323,116730
7866,505,7,134339,116730
7868,512,7,134337,116733
7870,518,7,134348,116737
7873,517,7,134354,116737
7875,524,7,134353,116742
7878,526,7,134364,116747
7880,523,7,134382,116746
7883,519,7,134387,116754
7885,519,7,134391,116760
7888,517,7,134405,116770
7890,514,7,134427,116763
7892,512,7,134437,116774
7896,510,7,134455,116778
7898,508,7,134465,116783
7901,504,7,134480,116788
7903,506,7,134493,116787
7906,513,7,134504,116794
7908,516,7,134506,116801
7910,512,7,134520,116804
7913,510,7,134551,116816
7915,508,7,134559,116820
7918,505,7,134579,116836
7920,508,7,134590,116831
7923,514,7,134602,116840
7925,521,7,134622,116841
7928,521,7,134646,116850
7930,516,7,134656,116859
7932,517,7,134673,116861
7936,518,7,134678,116868
7938,519,7,134693,116871
7941,516,7,134714,116884
7943,515,7,134724,116888
7946,518,7,134749,116891
7948,518,7,134754,116899
7950,514,7,134780,116901
7953,516,7,134799,116913
7955,514,7,134811,116911
7958,512,7,134824,116911
7960,512,7,134822,116920
7963,514,7,134851,116934
7965,518,7,134854,116935
7968,518,7,134881,116943
7970,515,7,134891,116940
7972,517,7,134915,116948
7975,516,7,134933,116956
7977,517,7,134923,116956
7981,516,7,134947,116957
7983,514,7,134957,116961
7986,517,7,134970,116972
7988,516,7,134972,116978
7990,512,7,134990,116984
7993,512,7,135006,116988
7995,509,7,135017,116997
7998,513,7,135020,116992
8000,506,7,135037,117002
8003,507,7,135048,116995
8005,511,7,135066,117008
8008,510,7,135079,117015
8010,507,7,135081,117022
8012,510,7,135093,117028
8015,511,7,135100,117028
8017,509,7,135114,117033
8020,511,7,135124,117013
8023,514,7,135125,117040
8026,513,7,135138,117045
8028,513,7,135148,117046
8030,516,7,135163,117044
8033,517,7,135163,117046
8035,513,7,135160,117058
8038,510,7,135176,117060
8040,510,7,135187,117061
8043,514,7,135200,117071
8045,516,7,135202,117068
8048,516,7,135204,117075
8050,517,7,135211,117080
8052,520,7,135225,117072
8055,520,7,135233,117082
8057,519,7,135237,117081
8060,521,7,135236,117082
8062,522,7,135247,117081
8066,525,7,135251,117079
8068,524,7,135264,117085
8070,518,7,135263,117090
8073,516,7,135276,117087
8075,518,7,135283,117097
8078,517,7,135280,117099
8080,511,7,135281,117093
8083,508,7,135293,117093
8085,512,7,135301,117104
8088,511,7,135301,117111
8090,511,7,135317,117118
8092,509,7,135320,117118
8095,507,7,135325,117112
8097,503,7,135325,117109
8100,505,7,135335,117118
8102,519,7,135337,117113
8105,527,7,135337,117121
8108,529,7,135347,117122
8110,526,7,135356,117122
8113,524,7,135364,117124
8115,519,7,135364,117125
8118,514,7,135365,117128
8120,507,7,135367,117131
8123,503,7,135375,117131
8125,506,7,135384,117141
8128,506,7,135384,117154
8130,507,7,135392,117156
8132,506,7,135394,117156
8135,504,7,135400,117149
8137,499,7,135412,117149
8140,502,7,135421,117151
8142,514,7,135431,117153
8145,520,7,135431,117159
8147,523,7,135433,117159
8150,521,7,135433,117159
8153,520,7,135449,117168
8155,517,7,135449,117169
8158,515,7,135443,117168
8160,512,7,135452,117168
8163,506,7,135474,117174
8165,508,7,135474,117174
8168,506,7,135465,117172
8170,503,7,135474,117171
8172,499,7,135474,117177
8175,500,7,135483,117179
8177,503,7,135488,117191
8180,503,7,135488,117183
8182,505,7,135500,117183
8185,506,7,135506,117191
8187,503,7,135506,117192
8189,505,7,135518,117201
8193,509,7,135531,117200
8195,508,7,135525,117200
8198,502,7,135545,117212
8200,507,7,135545,117209
8203,510,7,135557,117212
8205,511,7,135563,117212
8208,510,7,135570,117209
8210,513,7,135580,117217
8212,513,7,135594,117217
8215,516,7,135594,117229
8217,519,7,135595,117230
8220,520,7,135604,117230
8222,515,7,135623,117238
8225,509,7,135631,117233
8227,509,7,135631,117247
8229,511,7,135632,117243
8232,511,7,135650,117243
8235,508,7,135633,117250
8238,512,7,135633,117248
8240,510,7,135666,117255
8243,507,7,135645,117255
8245,503,7,135645,117263
8248,515,7,135695,117263
8250,528,7,135664,117263
8252,540,7,135714,117272
8255,560,7,135714,117277
8257,578,7,135716,117278
8260,588,7,135732,117278
8262,588,7,135743,117283
8265,582,7,135743,117290
8267,580,7,135734,117290
8269,570,7,135764,117301
8272,540,8,135764,117303
8274,525,7,135787,117311
8278,517,7,135792,117311
8280,490,7,135792,117313
8283,486,7,135810,117313
8285,486,7,135833,117313
8288,488,7,135833,117327
8290,488,7,135833,117331
8292,488,7,135849,117331
8295,494,7,135866,117333
8297,499,7,135867,117341
8300,502,7,135867,117349
8302,499,7,135880,117348
8305,502,7,135907,117348
8307,504,7,135907,117354
8309,514,7,135910,117354
8312,520,7,135944,117355
8314,524,8,135944,117363
8317,520,7,135938,117369
8320,516,7,135949,117372
8323,515,7,135958,117382
8325,516,7,135969,117384
8328,515,7,135984,117384
8330,515,7,135989,117393
8332,516,7,136017,117400
8335,516,7,136032,117400
8337,506,7,136027,117404
8340,505,7,136061,117407
8342,502,7,136054,117408
8345,500,7,136076,117414
8347,496,7,136079,117427
8349,491,7,136104,117427
8352,490,7,136099,117428
8354,495,7,136118,117430
8357,497,7,136112,117437
8359,494,7,136142,117438
8363,499,7,136129,117448
8365,505,7,136149,117452
8368,508,7,136159,117453
8370,504,7,136184,117463
8372,508,7,136181,117466
8375,504,7,136190,117471
8377,503,7,136203,117470
8380,507,7,136205,117475
8382,506,7,136220,117484
8385,502,7,136231,117483
8387,500,7,136257,117491
8389,499,7,136261,117496
8392,498,7,136265,117494
8394,497,7,136261,117495
8397,495,7,136267,117497
8399,491,7,136280,117501
8402,493,7,136302,117508
8404,501,7,136312,117507
8408,505,7,136319,117504
8410,502,7,136330,117516
8412,508,7,136326,117519
8415,513,7,136341,117533
8417,515,7,136352,117532
8420,512,7,136362,117534
8422,513,7,136369,117540
8425,519,7,136384,117544
8427,517,7,136402,117545
8429,519,7,136411,117554
8432,513,7,136425,117553
8434,513,7,136404,117557
8437,516,7,136423,117565
8439,517,7,136434,117557
8442,516,7,136427,117562
8444,513,7,136442,117564
8448,509,7,136449,117574
8450,505,7,136459,117570
8452,507,7,136467,117574
8455,510,7,136471,117574
8457,513,7,136456,117579
8460,515,7,136469,117574
8462,514,7,136461,117567
8465,511,7,136459,117566
8467,515,7,136428,117563
8469,516,7,136408,117550
8472,513,7,136370,117529
8474,515,7,136332,117516
8477,518,7,136294,117498
8479,517,7,136233,117471
8482,520,7,136164,117436
8484,525,7,136080,117413
8487,524,7,135995,117376
8489,521,7,135894,117345
8492,524,7,135793,117296
8495,525,7,135672,117257
8497,522,7,135562,117216
8500,524,7,135448,117153
8502,528,7,135328,117134
8505,527,7,135213,117083
8507,533,7,135100,117047
8509,542,7,135003,117010
8512,546,7,134899,116982
8514,541,7,134822,116959
8517,533,7,134755,116936
8519,528,7,134696,116914
8522,528,7,134642,116897
8524,528,7,134607,116882
8527,527,7,134566,116868
8529,524,7,134533,116857
8531,526,7,134505,116840
8535,526,7,134478,116832
8537,521,7,134443,116816
8540,512,7,134432,116811
8542,506,7,134412,116806
8545,508,7,134405,116787
8547,506,7,134379,116790
8549,499,7,134361,116788
8552,496,7,134346,116782
8554,496,7,134341,116774
8557,494,7,134339,116774
8559,486,7,134325,116774
8562,482,7,134318,116774
8564,487,7,134323,116773
8567,486,7,134312,116769
8569,484,7,134321,116772
8571,480,7,134313,116775
8574,477,7,134316,116774
8577,476,7,134329,116784
8580,475,7,134326,116775
8582,473,7,134337,116776
8585,472,7,134343,116776
8587,480,7,134363,116785
8589,480,7,134363,116800
8592,482,7,134366,116803
8594,482,7,134383,116803
8597,481,7,134398,116801
8599,479,7,134406,116802
8602,486,7,134421,116815
8604,494,7,134434,116829
8607,495,7,134454,116829
8609,492,7,134471,116827
8611,495,7,134471,116831
8614,496,7,134500,116839
8616,498,7,134515,116851
8620,500,7,134529,116851
8622,497,7,134529,116858
8625,498,7,134550,116875
8627,500,7,134590,116875
8629,498,7,134604,116875
8632,498,7,134623,116892
8634,500,7,134623,116888
8637,503,7,134648,116898
8639,501,7,134663,116898
8642,497,7,134686,116904
8644,500,7,134710,116920
8647,499,7,134713,116920
8649,501,7,134738,116920
8651,499,7,134738,116929
8654,500,7,134760,116931
8656,501,7,134764,116939
8659,500,7,134784,116942
8662,501,7,134790,116942
8665,501,7,134808,116957
8667,497,7,134808,116958
8669,503,7,134821,116963
8672,507,7,134839,116971
8674,502,7,134839,116975
8677,502,7,134867,116976
8679,504,7,134889,116976
8682,503,7,134913,116986
8684,497,7,134913,117004
8687,498,7,134908,117002
8689,501,7,134930,117005
8691,500,7,134959,117005
8694,497,7,134970,117011
8696,493,7,134970,117022
8699,498,7,135001,117029
8701,505,7,134996,117029
8705,510,7,135023,117030
8707,507,7,135023,117044
8709,506,7,135040,117039
8712,507,7,135071,117039
8714,504,7,135077,117048
8717,502,7,135077,117063
8719,505,7,135096,117060
8722,504,7,135081,117060
8724,495,7,135081,117071
8727,497,7,135127,117063
8729,500,7,135095,117063
8731,500,7,135136,117072
8734,493,7,135136,117077
8736,496,7,135132,117069
8739,499,7,135136,117069
8741,497,7,135128,117066
8744,498,7,135128,117068
8747,501,7,135085,117068
8749,502,7,135104,117061
8752,498,7,135104,117064
8754,500,7,135099,117059
8757,502,7,135072,117059
8759,497,7,135072,117035
8762,501,7,135045,117035
8764,505,7,135036,117039
8767,508,7,135036,117025
8769,506,7,135018,117028
8771,505,7,135003,117028
8774,510,7,134968,117014
8776,512,7,134968,117004
8779,511,7,134950,116997
8781,512,7,134938,116990
8784,518,7,134895,116990
8786,519,7,134895,116980
8788,526,7,134881,116980
8792,531,7,134868,116973
8794,533,7,134868,116960
8797,529,7,134837,116958
8799,524,7,134816,116953
8802,522,7,134805,116948
8804,522,7,134792,116949
8807,521,7,134787,116949
8809,521,7,134786,116940
8811,522,7,134786,116938
8814,518,7,134760,116936
8816,515,7,134758,116936
8819,517,7,134749,116934
8821,520,7,134757,116940
8824,519,7,134757,116927
8826,514,7,134751,116934
8828,505,7,134743,116927
8832,505,7,134749,116929
8834,501,7,134746,116938
8837,496,7,134758,116936
8839,495,7,134746,116933
8842,495,7,134762,116936
8844,492,7,134776,116930
8847,491,7,134776,116940
8849,489,7,134783,116940
8851,490,7,134774,116942
8854,490,7,134785,116948
8856,489,7,134794,116955
8859,486,7,134803,116953
8861,495,7,134821,116957
8864,500,7,134815,116965
8866,501,7,134822,116972
8868,501,7,134843,116970
8871,498,7,134863,116982
8873,496,7,134860,116978
8877,493,7,134880,116999
8879,488,7,134891,116995
8882,490,7,134919,116993
8884,498,7,134931,117006
8887,501,7,134946,117012
8889,497,7,134957,117023
8891,503,7,134967,117020
8894,506,7,134977,117027
8896,508,7,134996,117041
8899,512,7,135014,117033
8901,507,7,135032,117047
8904,507,7,135040,117050
8906,509,7,135055,117053
8908,507,7,135075,117055
8911,504,7,135093,117067
8913,506,7,135109,117070
8916,505,7,135116,117086
8919,508,7,135131,117089
8922,508,7,135147,117092
8924,509,7,135171,117095
8927,512,7,135186,117098
8929,512,7,135190,117111
8931,508,7,135217,117114
8934,508,7,135238,117129
8936,504,7,135249,117126
8939,504,7,135267,117131
8941,503,7,135280,117137
8944,499,7,135295,117148
8946,499,7,135313,117145
8948,500,7,135322,117156
8951,500,7,135339,117157
8953,499,7,135358,117166
8956,503,7,135360,117176
8958,502,7,135368,117178
8962,507,7,135395,117180
8964,511,7,135406,117181
8967,511,7,135423,117192
8969,510,7,135433,117210
8971,512,7,135447,117204
8974,511,7,135458,117203
8976,509,7,135475,117214
8979,512,7,135478,117219
8981,509,7,135495,117226
8984,514,7,135511,117235
8986,517,7,135533,117234
8988,515,7,135545,117238
8991,516,7,135544,117243
8993,513,7,135561,117246
8996,514,7,135572,117246
8998,509,7,135580,117253
9001,514,7,135590,117254
9004,520,7,135595,117263
9007,519,7,135605,117276
9009,503,7,135615,117267
9011,503,7,135624,117273
9014,503,7,135641,117277
9016,504,7,135654,117281
9019,508,7,135651,117285
9021,506,7,135661,117283
9024,510,7,135670,117289
9026,516,7,135679,117296
9028,512,7,135693,117283
9031,505,7,135700,117289
9033,497,7,135705,117306
9036,484,7,135708,117307
9038,486,7,135722,117300
9041,487,7,135722,117310
9043,489,7,135730,117314
9047,494,7,135748,117321
9049,489,7,135751,117322
9051,491,7,135753,117316
9054,492,7,135759,117325
9056,493,7,135767,117329
9059,497,7,135773,117329
9061,497,7,135782,117327
9064,499,7,135782,117336
9066,499,7,135790,117333
9068,496,7,135791,117333
9071,494,7,135804,117342
9073,496,7,135806,117356
9076,495,7,135814,117344
9078,491,7,135819,117352
9081,488,7,135822,117352
9083,493,7,135822,117355
9086,493,7,135822,117369
9089,493,7,135826,117369
9091,493,7,135833,117369
9094,490,7,135848,117356
9096,485,7,135843,117352
9099,488,7,135842,117364
9101,501,7,135857,117357
9104,509,7,135857,117363
9106,512,7,135856,117366
9108,510,7,135869,117366
9111,509,7,135878,117375
9113,506,7,135878,117371
9116,503,7,135868,117373
9118,499,7,135876,117373
9121,494,7,135884,117375
9123,496,7,135880,117376
9126,494,7,135879,117376
9128,490,7,135893,117380
9131,490,7,135896,117380
9134,501,7,135894,117384
9136,506,7,135894,117385
9139,508,7,135900,117381
9141,505,7,135901,117381
9144,500,7,135910,117385
9146,498,7,135910,117386
9148,500,7,135916,117385
9151,503,7,135918,117387
9153,499,7,135918,117395
9156,498,7,135922,117394
9158,497,7,135931,117394
9161,495,7,135935,117395
9163,495,7,135935,117388
9166,495,7,135940,117397
9168,497,7,135930,117403
9170,496,7,135940,117403
9174,491,7,135938,117395
9176,488,7,135938,117407
9179,497,7,135958,117409
9181,510,7,135946,117409
9184,524,7,135961,117405
9186,545,7,135961,117409
9188,560,7,135970,117412
9191,571,7,135968,117412
9193,575,7,135983,117410
9196,572,7,135983,117414
9198,570,7,135961,117414
9201,563,7,136003,117421
9203,537,7,136003,117422
9206,522,7,135998,117427
9208,506,7,136001,117431
9210,487,7,136001,117429
9213,480,7,135992,117429
9216,476,7,136041,117433
9219,463,7,136041,117433
9221,464,7,136041,117438
9224,466,7,136048,117438
9226,462,7,136048,117443
9228,467,7,136070,117451
9231,471,7,136062,117451
9233,472,7,136073,117455
9236,470,7,136073,117455
9238,472,7,136082,117456
9241,478,7,136087,117456
9243,486,7,136103,117463
9246,491,7,136125,117468
9248,493,7,136125,117470
9250,492,7,136122,117481
9253,489,7,136133,117481
9255,482,7,136145,117483
9259,481,7,136145,117482
9261,482,7,136162,117486
9264,483,7,136169,117486
9266,486,7,136184,117490
9268,492,7,136184,117501
9271,485,7,136187,117505
9273,483,7,136204,117505
9276,485,7,136245,117510
9278,487,7,136243,117514
9281,488,7,136243,117525
9283,493,7,136264,117527
9286,493,7,136256,117527
9288,494,7,136303,117530
9290,497,7,136303,117546
9293,495,7,136291,117544
9295,494,7,136309,117544
9298,498,7,136351,117558
9300,499,7,136347,117565
9304,498,7,136347,117563
9306,500,7,136355,117564
9308,497,7,136364,117572
9311,498,7,136393,117569
9313,493,7,136406,117579
9316,488,7,136420,117580
9318,487,7,136424,117581
9321,486,7,136433,117583
9323,482,7,136438,117596
9326,480,7,136460,117607
9328,479,7,136447,117610
9330,477,7,136478,117619
9333,474,7,136491,117612
9335,480,7,136499,117628
9338,484,7,136506,117633
9340,488,7,136512,117638
9344,488,7,136532,117637
9346,495,7,136530,117644
9348,492,7,136547,117646
9351,490,7,136559,117657
9353,488,7,136566,117652
9356,485,7,136586,117657
9358,484,7,136592,117670
9361,481,7,136598,117672
9363,481,7,136622,117672
9366,480,7,136626,117679
9368,478,7,136630,117680
9370,484,7,136649,117692
9373,491,7,136653,117689
9375,492,7,136661,117684
9378,489,7,136672,117696
9380,486,7,136687,117698
9383,487,7,136683,117706
9385,491,7,136700,117699
9388,492,7,136704,117707
9391,492,7,136715,117703
9393,495,7,136713,117710
9396,496,7,136697,117714
9398,500,7,136699,117700
9401,502,7,136689,117709
9403,504,7,136684,117701
9406,507,7,136671,117688
9408,507,7,136642,117680
9410,504,7,136620,117657
9413,506,7,136587,117649
9415,504,7,136538,117630
9418,504,7,136488,117603
9420,503,7,136421,117583
9423,500,7,136347,117553
9425,497,7,136268,117515
9427,500,7,136164,117482
9431,500,7,136075,117437
9433,502,7,135972,117405
9436,503,7,135857,117363
9438,502,7,135739,117324
9441,504,7,135634,117278
9443,508,7,135515,117247
9446,507,7,135412,117208
9448,503,7,135311,117174
9450,505,7,135214,117144
9453,504,7,135132,117111
9455,501,7,135063,117098
9458,503,7,135000,117059
9460,506,7,134953,117050
9463,503,7,134906,117032
9465,495,7,134868,117027
9467,501,7,134836,117010
9470,502,7,134812,117004
9473,498,7,134791,116997
9476,494,7,134761,116985
9478,493,7,134730,116977
9481,494,7,134715,116965
9483,489,7,134695,116959
9486,480,7,134683,116956
9488,465,7,134669,116953
9490,465,7,134664,116945
9493,466,7,134661,116942
9495,467,7,134643,116914
9498,472,7,134641,116941
9500,464,7,134631,116940
9503,464,7,134639,116929
9505,465,7,134636,116941
9507,466,7,134637,116936
9510,470,7,134627,116934
9512,467,7,134647,116938
9516,472,7,134638,116939
9518,479,7,134642,116940
9521,477,7,134644,116940
9523,471,7,134665,116947
9526,472,7,134666,116939
9528,470,7,134687,116948
9530,466,7,134696,116956
9533,463,7,134708,116959
9535,457,7,134721,116965
9538,463,7,134739,116967
9540,473,7,134746,116988
9543,475,7,134771,116988
9545,468,7,134789,116992
9547,469,7,134803,116993
9550,472,7,134811,116998
9552,476,7,134845,117007
9555,477,7,134865,117013
9558,479,7,134875,117023
9561,479,7,134888,117032
9563,481,7,134903,117035
9566,486,7,134903,117061
9568,491,7,134947,117062
9570,490,7,134953,117062
9573,486,7,134988,117070
9575,478,7,134993,117069
9578,480,7,135012,117079
9580,491,7,135035,117082
9583,498,7,135035,117094
9585,502,7,135067,117112
9587,497,7,135078,117108
9590,491,7,135106,117123
9592,490,7,135118,117123
9595,483,7,135144,117123
9597,483,7,135144,117128
9601,488,7,135160,117133
9603,487,7,135180,117133
9606,484,7,135200,117140
9608,484,7,135219,117157
9610,483,7,135232,117157
9613,488,7,135246,117171
9615,492,7,135246,117171
9618,498,7,135278,117183
9620,498,7,135299,117185
9623,497,7,135323,117195
9625,495,7,135323,117197
9627,496,7,135336,117209
9630,495,7,135369,117215
9632,491,7,135369,117223
9635,495,7,135412,117231
9637,495,7,135432,117245
9640,496,7,135432,117240
9643,499,7,135456,117240
9646,499,7,135484,117247
9648,500,7,135484,117247
9650,500,7,135484,117258
9653,501,7,135512,117268
9655,498,7,135520,117268
9658,492,7,135520,117267
9660,490,7,135535,117267
9663,487,7,135549,117275
9665,484,7,135549,117276
9667,486,7,135556,117275
9670,492,7,135556,117287
9672,487,7,135556,117281
9675,489,7,135528,117281
9677,493,7,135550,117265
9680,492,7,135547,117268
9682,496,7,135547,117265
9686,499,7,135509,117257
9688,499,7,135497,117257
9690,498,7,135467,117255
9693,503,7,135467,117240
9695,500,7,135467,117233
9698,496,7,135390,117233
9700,489,7,135390,117216
9703,487,7,135414,117207
9705,486,7,135360,117207
9707,483,7,135342,117204
9710,490,7,135342,117179
9712,495,7,135322,117175
9715,495,7,135267,117175
9717,488,7,135267,117160
9720,492,7,135226,117160
9722,497,7,135210,117152
9725,504,7,135210,117130
9728,504,7,135185,117133
9730,504,7,135169,117133
9733,509,7,135136,117123
9735,511,7,135121,117115
9738,508,7,135121,117107
9740,515,7,135103,117104
9743,519,7,135083,117104
9745,517,7,135083,117096
9747,506,7,135072,117096
9750,505,7,135057,117097
9752,507,7,135057,117085
9755,505,7,135052,117088
9757,506,7,135050,117083
9760,512,7,135043,117092
9762,517,7,135044,117089
9765,522,7,135043,117089
9767,525,7,135059,117092
9769,527,7,135059,117089
9773,524,7,135046,117088
9775,521,7,135047,117088
9778,524,7,135078,117097
9780,524,7,135074,117106
9783,522,7,135074,117095
9785,524,7,135073,117102
9787,519,7,135080,117108
9790,520,7,135116,117108
9792,516,7,135118,117116
9795,510,7,135141,117119
9797,509,7,135134,117125
9800,508,7,135154,117125
9802,505,7,135158,117134
9805,499,7,135183,117134
9807,499,7,135177,117144
9809,504,7,135201,117143
9812,506,7,135215,117147
9815,501,7,135231,117158
9818,508,7,135256,117166
9820,513,7,135256,117170
9823,514,7,135267,117176
9825,520,7,135279,117181
9827,517,7,135294,117188
9830,513,7,135312,117194
9832,511,7,135329,117196
9835,508,7,135352,117200
9837,506,7,135360,117214
9840,504,7,135385,117212
9842,503,7,135405,117216
9845,503,7,135413,117233
9847,499,7,135442,117235
9849,506,7,135457,117240
9852,513,7,135464,117250
9854,515,7,135488,117253
9858,512,7,135509,117257
9860,509,7,135524,117271
9863,511,7,135521,117277
9865,515,7,135545,117284
9867,516,7,135566,117286
9870,514,7,135581,117292
9872,521,7,135588,117304
9875,526,7,135605,117307
9877,529,7,135618,117313
9880,527,7,135638,117319
9882,523,7,135644,117317
9885,526,7,135664,117322
9887,525,7,135684,117322
9889,528,7,135698,117332
9892,529,7,135711,117346
9894,531,7,135707,117346
9897,530,7,135723,117351
9900,530,7,135736,117358
9903,532,7,135755,117349
9905,532,7,135758,117364
9907,529,7,135771,117370
9910,528,7,135788,117365
9912,525,7,135793,117369
9915,529,7,135802,117381
9917,524,7,135811,117382
9920,524,7,135823,117380
9922,527,7,135828,117391
9925,526,7,135844,117388
9927,523,7,135843,117399
9929,524,7,135858,117394
9932,523,7,135867,117397
9934,520,7,135868,117409
9937,523,7,135886,117401
9939,526,7,135896,117408
9943,525,7,135900,117422
9945,520,7,135911,117423
9947,514,7,135912,117424
9950,515,7,135920,117434
9952,514,7,135933,117426
9955,517,7,135940,117434
9957,516,7,135945,117447
9960,524,7,135959,117444
9962,529,7,135961,117450
9965,529,7,135972,117448
9967,528,7,135977,117443
9969,531,7,135994,117457
9972,530,7,135998,117460
9974,528,7,136008,117462
9977,531,7,135997,117463
9979,528,7,136007,117458
9982,532,7,136013,117461
9985,535,7,136022,117465
9987,538,7,136026,117471
9990,539,7,136026,117465
9992,532,7,136026,117470
9995,526,7,136031,117469
9997,528,7,136047,117474
10000,539,7,136045,117472
10002,537,7,136050,117483
10005,539,7,136058,117463
10007,539,7,136067,117471
10009,534,7,136062,117484
10012,529,7,136074,117486
10014,518,7,136083,117489
10017,522,7,136086,117484
10019,531,7,136089,117491
10022,532,7,136090,117492
10024,522,7,136099,117498
10027,522,7,136099,117493
10030,522,7,136099,117501
10032,522,7,136104,117508
10035,525,7,136110,117508
10037,522,7,136123,117502
10040,522,7,136124,117498
10042,526,7,136120,117504
10045,526,7,136116,117504
10047,526,7,136126,117511
10049,527,7,136126,117499
10052,529,7,136133,117507
10054,528,7,136137,117507
10057,532,7,136140,117519
10059,527,7,136150,117507
10062,524,7,136145,117507
10064,529,7,136148,117510
10066,535,7,136148,117514
10070,543,7,136151,117517
10072,546,7,136157,117515
10075,560,7,136161,117530
10077,573,7,136161,117520
10080,588,7,136164,117515
10082,598,7,136171,117515
10085,609,7,136173,117519
10087,606,7,136182,117526
10089,602,8,136182,117525
10092,594,7,136181,117525
10094,584,8,136179,117525
10097,572,7,136188,117532
10099,548,7,136193,117526
10102,535,7,136191,117526
10104,513,7,136195,117532
10106,509,7,136195,117532
10109,508,7,136203,117537
10112,506,7,136202,117537
10115,505,7,136227,117540
10117,505,7,136227,117542
10120,509,7,136222,117542
10122,513,7,136222,117542
10125,514,7,136244,117543
10127,513,7,136244,117549
10129,515,7,136246,117552
10132,515,7,136249,117552
10134,513,8,136259,117556
10137,512,7,136266,117557
10139,512,7,136266,117560
10142,515,7,136263,117564
10144,517,7,136279,117564
10146,515,7,136285,117564
10149,515,7,136296,117565
10151,518,7,136302,117565
10155,516,7,136316,117573
10157,516,7,136306,117573
10160,519,7,136324,117583
10162,534,7,136324,117582
10165,529,7,136336,117594
10167,525,7,136335,117594
10169,521,7,136364,117591
10172,510,7,136364,117597
10174,512,7,136361,117601
10177,515,7,136377,117601
10179,513,7,136401,117607
10182,515,7,136401,117608
10184,517,7,136386,117608
10186,518,7,136429,117620
10189,515,7,136429,117623
10191,517,7,136431,117627
10194,518,7,136455,117627
10196,519,7,136460,117638
10200,523,8,136460,117639
10202,525,7,136474,117639
10205,529,8,136493,117638
10207,534,7,136493,117647
10209,535,7,136500,117649
10212,532,8,136505,117649
10214,525,7,136527,117666
10217,524,8,136527,117655
10219,524,7,136531,117664
10222,524,7,136545,117664
10224,528,7,136561,117669
10226,533,7,136561,117673
10229,527,7,136574,117679
10231,525,7,136577,117679
10234,529,7,136600,117685
10236,532,7,136611,117689
10240,532,7,136611,117700
10242,536,7,136615,117696
10245,534,7,136626,117696
10247,537,7,136646,117696
10249,540,7,136646,117703
10252,538,7,136648,117707
10254,538,7,136657,117707
10257,542,7,136692,117711
10259,544,8,136674,117723
10262,543,7,136674,117716
10264,545,7,136676,117723
10266,541,7,136699,117725
10269,542,8,136698,117732
10271,536,7,136708,117732
10274,534,7,136709,117728
10276,536,7,136718,117733
10279,536,7,136727,117719
10281,535,7,136729,117725
10285,528,7,136688,117725
10287,531,7,136683,117718
10289,536,7,136674,117699
10292,538,7,136653,117674
10294,532,7,136620,117674
10297,531,7,136558,117651
10299,535,7,136523,117634
10302,536,7,136452,117607
10304,535,7,136376,117574
10306,530,7,136289,117541
10309,529,7,136186,117507
10311,533,7,136092,117468
10314,533,7,135981,117431
10316,540,7,135865,117389
10319,538,7,135747,117347
10321,537,7,135645,117312
10324,536,7,135531,117263
10327,535,7,135426,117232
10329,534,7,135323,117196
10332,533,7,135238,117172
10334,530,7,135168,117138
10337,525,7,135111,117119
10339,527,7,135068,117099
10342,534,7,135022,117090
10344,538,7,134972,117059
10346,535,7,134924,117058
10349,533,7,134898,117043
10351,531,7,134870,117032
10354,527,7,134846,117015
10356,529,7,134810,117006
10359,533,7,134795,116999
10361,539,7,134767,116984
10364,536,7,134740,116979
10366,529,7,134733,116968
10369,527,7,134708,116957
10372,524,7,134685,116960
10374,522,7,134675,116953
10377,518,7,134666,116950
10379,515,7,134650,116951
10382,515,7,134651,116947
10384,514,7,134637,116933
10386,508,7,134637,116936
10389,507,7,134644,116934
10391,504,7,134638,116929
10394,507,7,134632,116934
10396,502,7,134631,116941
10399,501,7,134636,116939
10401,503,7,134640,116937
10404,502,7,134648,116935
10406,500,7,134642,116939
10408,502,7,134655,116936
10412,503,7,134664,116942
10414,504,7,134667,116947
10417,503,7,134682,116947
10419,502,7,134699,116956
10422,506,7,134705,116961
10424,506,7,134710,116960
10426,501,7,134722,116958
10429,503,7,134726,116975
10431,500,7,134741,116978
10434,505,7,134751,116979
10436,499,7,134773,116985
10439,500,7,134778,116978
10441,504,7,134803,116999
10444,504,7,134815,116999
10446,501,7,134814,117007
10448,505,7,134836,117003
10451,507,7,134847,117018
10454,506,7,134858,117023
10457,507,7,134866,117007
10459,512,7,134883,117027
10462,511,7,134906,117019
10464,507,7,134909,117044
10466,500,7,134911,117045
10469,497,7,134929,117044
10471,503,7,134934,117047
10474,508,7,134941,117049
10476,508,7,134957,117051
10479,511,7,134951,117032
10481,514,7,134965,117057
10484,510,7,134962,117057
10486,507,7,134977,117063
10488,515,7,134979,117042
10491,526,7,134991,117060
10493,523,7,134991,117056
10497,516,7,134991,117069
10499,512,7,135001,117059
10502,515,7,135008,117078
10504,510,7,135018,117078
10506,512,7,135018,117062
10509,512,7,135021,117069
10511,514,7,135018,117082
10514,519,7,135025,117082
10516,516,7,135054,117085
10519,516,7,135050,117081
10521,521,7,135053,117090
10524,522,7,135064,117090
10526,523,7,135079,117101
10528,524,7,135079,117092
10531,526,7,135095,117102
10533,525,7,135105,117102
10536,527,7,135119,117117
10539,522,7,135120,117105
10542,519,7,135124,117105
10544,524,7,135139,117119
10546,527,7,135137,117114
10549,527,7,135153,117113
10551,528,7,135153,117114
10554,531,7,135147,117118
10556,527,7,135148,117117
10559,523,7,135153,117117
10561,524,7,135151,117119
10564,523,7,135147,117119
10566,523,7,135150,117117
10568,521,7,135150,117107
10571,520,7,135140,117122
10573,521,7,135127,117103
10576,518,7,135127,117103
10578,519,8,135108,117103
10582,519,8,135116,117103
10584,513,7,135116,117082
10586,514,7,135096,117086
10589,520,7,135077,117086
10591,516,7,135077,117082
10594,516,7,135058,117072
10596,517,7,135043,117072
10599,517,7,135041,117067
10601,513,7,135041,117067
10604,518,7,135032,117061
10606,524,7,135001,117054
10608,520,7,135001,117045
10611,520,7,134975,117040
10613,521,7,134977,117045
10616,519,7,134977,117036
10618,520,8,134952,117036
10621,520,7,134939,117035
10624,516,7,134939,117026
10626,515,7,134939,117019
10629,519,7,134922,117020
10631,521,7,134922,117023
10634,524,7,134914,117017
10636,522,7,134904,117019
10639,524,7,134904,117018
10641,528,8,134904,117018
10644,528,7,134913,117015
10646,520,7,134913,117010
10648,517,7,134897,117013
10651,520,7,134904,117013
10653,524,7,134916,117021
10656,520,7,134916,117012
10658,520,7,134909,117022
10661,521,7,134905,117022
10663,515,8,134905,117014
10665,517,7,134912,117009
10669,519,8,134907,117009
10671,518,7,134915,117015
10674,514,7,134931,117017
10676,513,8,134930,117017
10679,516,7,134942,117023
10681,532,7,134942,117032
10684,529,7,134947,117032
10686,525,7,134930,117032
10688,519,8,134975,117036
10691,510,7,134975,117044
10693,514,7,134989,117049
10696,519,7,135008,117049
10698,519,8,135019,117045
10701,522,7,135019,117055
10703,524,7,135028,117055
10705,525,7,135043,117067
10708,533,7,135043,117070
10711,535,7,135057,117074
10714,536,7,135078,117074
10716,526,7,135078,117082
10719,529,7,135102,117082
10721,531,7,135131,117093
10724,532,8,135131,117104
10726,528,7,135139,117108
10728,527,7,135149,117108
10731,530,7,135185,117109
10733,531,7,135185,117118
10736,528,7,135187,117131
10738,528,7,135197,117128
10741,533,7,135229,117128
10743,533,8,135229,117142
10745,538,7,135247,117142
10748,542,7,135284,117143
10750,543,7,135284,117155
10754,539,8,135280,117160
10756,533,7,135295,117171
10759,532,7,135314,117165
10761,531,7,135316,117179
10764,530,8,135340,117179
10766,530,7,135349,117184
10768,532,8,135378,117180
10771,529,7,135390,117198
10773,517,7,135394,117198
10776,513,7,135399,117201
10778,515,7,135426,117208
10781,515,7,135443,117210
10783,510,7,135449,117210
10785,515,8,135435,117218
10788,517,7,135458,117225
10790,516,7,135482,117224
10793,512,7,135494,117226
10796,505,7,135496,117227
10799,507,7,135498,117231
10801,514,7,135510,117236
10804,521,7,135523,117243
10806,519,7,135529,117247
10808,522,7,135529,117251
10811,516,7,135538,117255
10813,513,7,135558,117254
10816,514,7,135568,117260
10818,514,7,135563,117257
10821,510,7,135572,117264
10823,508,7,135588,117267
10825,506,7,135591,117261
10828,505,7,135599,117269
10830,503,7,135612,117271
10833,500,7,135610,117275
10835,496,7,135606,117267
10839,494,7,135615,117280
10841,494,7,135627,117277
10844,494,7,135629,117276
10846,493,7,135630,117285
10848,501,7,135637,117281
10851,506,7,135648,117292
10853,509,7,135655,117291
10856,511,7,135648,117287
10858,509,7,135662,117295
10861,511,7,135668,117292
10863,514,7,135668,117288
10865,515,7,135680,117292
10868,513,7,135683,117297
10870,515,7,135688,117295
10873,512,7,135694,117296
10875,518,7,135674,117304
10878,524,7,135695,117304
10881,530,7,135695,117311
10884,539,7,135705,117310
10886,551,7,135699,117305
10888,569,7,135713,117305
10891,592,7,135709,117308
10893,600,7,135703,117306
10896,603,7,135708,117307
10898,599,7,135718,117309
10901,590,7,135722,117301
10903,574,7,135713,117313
10905,553,7,135712,117314
10908,537,7,135715,117311
10910,521,7,135733,117316
10913,498,7,135738,117318
10915,483,7,135730,117326
10918,479,7,135741,117307
10920,480,7,135737,117315
10924,480,7,135748,117319
10926,480,7,135740,117324
10928,486,7,135745,117318
10931,492,7,135743,117331
10933,495,7,135757,117329
10936,494,7,135751,117315
10938,495,7,135756,117333
10941,498,7,135755,117308
10943,497,7,135756,117325
10945,493,7,135757,117329
10948,489,7,135762,117337
10950,493,7,135761,117327
10953,497,7,135773,117338
10955,496,7,135784,117342
10958,499,7,135783,117311
10960,503,7,135794,117341
10963,498,7,135792,117342
10966,497,7,135804,117350
10968,503,7,135797,117348
10971,501,7,135807,117343
10973,497,7,135813,117351
10976,493,7,135813,117353
10978,488,7,135830,117358
10981,485,7,135838,117345
10983,494,7,135840,117360
10985,495,7,135845,117351
10988,495,7,135849,117354
10990,492,7,135853,117365
10993,491,7,135862,117368
10995,501,7,135871,117374
10998,509,7,135873,117370
11000,517,7,135887,117377
11003,520,7,135893,117376
11005,520,7,135892,117373
11008,519,7,135900,117387
11011,521,7,135898,117373
11013,519,7,135915,117376
11016,515,7,135922,117389
11018,510,7,135925,117390
11021,507,7,135926,117390
11023,512,7,135940,117391
11025,515,7,135940,117406
11028,517,7,135951,117410
11030,514,7,135955,117410
11033,509,7,135973,117394
11035,509,7,135973,117402
11038,510,7,135978,117401
11040,515,7,135989,117410
11043,514,7,135993,117410
11045,518,7,135996,117423
11047,519,7,136011,117418
11051,520,7,136015,117432
11053,522,7,136015,117423
11056,518,7,136029,117425
11058,516,7,136026,117425
11061,517,7,136047,117429
11063,512,7,136055,117436
11065,512,7,136055,117438
11068,516,7,136063,117440
11070,517,7,136075,117440
11073,520,7,136081,117451
11075,518,7,136081,117446
11078,518,7,136089,117453
11080,518,7,136096,117452
11083,517,7,136096,117448
11085,520,7,136096,117449
11087,521,7,136098,117449
11090,513,7,136092,117439
11092,512,7,136092,117441
11096,518,7,136089,117432
11098,523,7,136044,117432
11101,523,7,136023,117429
11103,517,7,136023,117402
11105,519,7,136003,117375
11108,523,7,135902,117362
11110,518,7,135902,117343
11113,520,7,135797,117315
11115,522,7,135719,117315
11118,522,7,135637,117256
11120,518,7,135637,117222
11123,525,7,135557,117187
11125,529,7,135380,117187
11127,529,7,135303,117162
11130,522,7,135217,117104
11132,521,7,135148,117104
11136,532,7,135148,117058
11138,538,8,135007,117058
11141,539,7,134973,117037
11143,532,7,134973,116994
11145,532,8,134925,116972
11148,531,7,134833,116966
11150,525,7,134833,116947
11153,526,7,134740,116947
11155,530,8,134739,116927
11158,524,7,134739,116902
11160,524,8,134671,116902
11163,525,7,134647,116900
11165,527,7,134647,116864
11167,526,7,134618,116858
11170,523,7,134570,116858
11172,513,7,134546,116859
11175,508,7,134546,116835
11177,509,8,134510,116835
11181,507,7,134495,116828
11183,496,7,134495,116824
11185,495,7,134487,116813
11188,494,7,134459,116816
11190,488,7,134459,116816
11193,489,7,134432,116808
11195,490,7,134445,116807
11198,493,7,134445,116795
11200,495,7,134434,116797
11203,493,7,134416,116797
11205,486,7,134416,116793
11207,483,7,134429,116791
11210,482,7,134426,116791
11212,477,7,134437,116801
11215,480,7,134437,116792
11217,483,7,134433,116797
11220,485,7,134441,116797
11223,489,7,134458,116801
11225,496,7,134458,116800
11228,492,7,134446,116799
11230,491,7,134457,116799
11233,493,7,134492,116806
11235,497,7,134480,116816
11238,498,7,134480,116809
11240,502,7,134490,116818
11243,505,7,134497,116819
11245,507,7,134499,116827
11247,504,7,134517,116826
11250,498,7,134537,116829
11252,498,7,134537,116835
11255,501,7,134550,116837
11257,504,7,134553,116837
11260,509,7,134561,116841
11262,510,7,134584,116847
11265,509,7,134602,116850
11268,507,7,134605,116858
11270,500,7,134606,116858
11273,499,7,134604,116855
11275,502,7,134607,116859
11278,504,7,134626,116855
11280,501,7,134632,116861
11283,504,7,134622,116864
11285,512,7,134635,116865
11287,512,7,134640,116862
11290,506,7,134642,116866
11292,504,7,134653,116865
11295,502,7,134653,116872
11297,499,7,134649,116871
11300,496,7,134656,116877
11302,496,7,134664,116876
11304,497,7,134664,116875
11308,497,7,134678,116879
