TimeStamp,ECG Data,GSR Data,PPG_Red Data,PPG_IR Data
34420,510,7,136319,113900
34422,509,7,136345,113908
34425,506,7,136337,113913
34427,504,7,136350,113908
34430,506,7,136374,113922
16,483,4,106679,106662
18,444,4,123084,114628
20,417,4,138514,114626
23,393,4,138310,114620
25,369,4,138291,114613
28,358,5,138251,114596
30,352,5,138221,114551
33,348,4,138177,114551
35,345,5,138113,114534
37,351,5,138055,114507
40,356,5,137966,114478
43,362,5,137875,114437
46,365,5,137772,114401
48,365,5,137655,114352
51,365,5,137528,114311
53,367,5,137408,114265
56,368,5,137275,114222
58,381,5,137139,114166
60,387,5,136998,114120
63,394,5,136847,114070
65,397,5,136702,114025
68,397,5,136564,113972
70,399,5,136443,113936
73,399,5,136331,113907
75,401,5,136230,113869
77,405,5,136143,113839
80,417,5,136074,113812
82,421,5,136012,113797
86,422,5,135980,113776
88,420,5,135938,113757
91,418,5,135900,113748
93,417,5,135872,113736
96,416,5,135844,113731
98,424,5,135815,113710
100,427,5,135797,113704
103,431,6,135776,113700
105,431,5,135752,113690
108,431,5,135736,113688
110,430,6,135726,113685
113,430,6,135719,113679
115,432,6,135701,113672
117,435,6,135694,113674
120,441,5,135698,113670
122,446,6,135695,113663
125,448,6,135684,113659
128,444,6,135682,113660
131,445,6,135682,113665
133,446,6,135676,113663
136,447,6,135687,113655
138,457,6,135685,113659
140,460,6,135677,113668
143,463,6,135702,113668
145,465,6,135712,113661
148,468,6,135707,113668
150,466,6,135715,113678
153,466,6,135722,113675
155,465,6,135728,113689
157,472,6,135756,113679
160,478,6,135760,113691
162,482,6,135774,113693
165,482,6,135785,113697
167,478,6,135798,113710
171,477,6,135814,113704
173,480,6,135826,113716
176,482,6,135850,113722
178,485,6,135862,113733
180,491,6,135879,113737
183,496,6,135890,113743
185,496,6,135903,113745
188,492,6,135921,113753
190,489,6,135947,113762
193,489,6,135959,113759
195,494,6,135973,113774
197,500,6,136002,113776
200,503,6,136013,113783
202,507,6,136023,113760
205,509,7,136038,113783
207,508,7,136049,113787
210,507,7,136071,113799
212,505,7,136086,113796
216,503,6,136095,113805
218,509,7,136106,113813
220,515,7,136125,113815
223,518,7,136131,113817
225,519,7,136146,113818
228,515,7,136153,113821
230,512,7,136161,113825
233,511,7,136161,113830
235,512,7,136175,113830
237,515,7,136183,113830
240,525,7,136204,113844
242,528,7,136212,113834
245,527,7,136220,113843
247,524,7,136218,113843
250,522,7,136236,113849
252,518,7,136241,113851
256,518,7,136241,113857
258,524,7,136271,113857
260,528,7,136278,113857
263,534,7,136294,113870
265,530,7,136309,113875
268,526,7,136309,113879
270,526,7,136341,113884
273,525,7,136350,113884
275,525,7,136371,113918
277,528,7,136371,113904
280,534,7,136402,113908
282,535,7,136420,113908
285,535,7,136437,113916
287,528,7,136440,113926
290,526,7,136440,113931
292,526,7,136471,113939
295,525,7,136480,113939
297,532,7,136496,113953
300,533,7,136496,113945
303,537,7,136498,113948
305,537,7,136507,113948
308,534,7,136511,113944
310,529,7,136519,113949
313,528,7,136512,113950
315,525,7,136512,113944
317,530,7,136518,113952
320,538,7,136517,113945
322,537,7,136517,113949
325,536,7,136511,113947
327,535,7,136507,113947
330,533,7,136512,113945
332,529,7,136502,113943
335,528,7,136499,113938
337,531,7,136484,113932
339,534,7,136483,113932
343,542,7,136478,113927
345,538,7,136478,113925
348,533,7,136464,113921
350,533,7,136446,113921
353,533,7,136432,113918
355,532,7,136432,113900
357,535,7,136415,113908
360,539,7,136402,113908
362,541,7,136390,113904
365,540,7,136380,113887
367,532,7,136380,113886
370,530,7,136354,113886
372,529,7,136354,113880
375,527,7,136348,113880
377,530,7,136321,113880
379,536,7,136322,113876
382,540,7,136303,113862
385,539,8,136289,113862
388,533,7,136289,113856
390,530,7,136290,113858
393,528,7,136240,113858
395,527,7,136279,113854
397,528,7,136261,113853
400,537,7,136261,113846
402,538,7,136262,113846
405,535,7,136247,113846
407,532,7,136257,113844
410,528,7,136257,113842
412,527,8,136246,113842
415,525,7,136254,113848
417,532,7,136254,113844
419,537,7,136259,113847
422,539,7,136271,113847
424,536,7,136242,113852
428,531,7,136242,113854
430,530,7,136265,113850
433,529,8,136284,113850
435,528,7,136304,113856
437,530,7,136309,113861
440,539,7,136309,113862
442,540,7,136315,113874
445,538,7,136335,113874
447,535,7,136345,113875
450,532,7,136345,113884
452,531,7,136356,113889
455,528,7,136370,113889
457,532,7,136403,113893
459,541,7,136403,113902
462,541,7,136412,113906
464,539,7,136420,113916
467,536,7,136440,113912
470,533,7,136452,113926
473,531,7,136475,113926
475,530,8,136484,113932
477,533,7,136510,113933
480,539,7,136516,113936
482,544,7,136541,113950
485,544,7,136574,113947
487,539,7,136574,113967
490,535,7,136586,113969
492,526,7,136601,113973
495,527,7,136618,113973
497,530,7,136641,113980
499,536,7,136655,113981
502,539,7,136689,113993
504,541,7,136693,113997
507,537,7,136730,113994
509,534,7,136730,114018
513,531,7,136748,114018
515,529,7,136759,114023
517,534,7,136804,114031
520,538,7,136802,114041
522,541,7,136814,114037
525,541,7,136842,114039
527,533,7,136852,114050
530,531,7,136862,114058
532,529,7,136880,114059
535,525,7,136895,114062
537,533,7,136908,114070
539,537,7,136927,114073
542,540,7,136935,114076
544,538,7,136958,114084
547,534,7,136966,114090
549,530,7,136991,114104
552,527,7,137000,114103
555,526,7,137008,114101
557,528,7,137018,114114
560,537,7,137021,114121
562,539,7,137038,114120
565,538,7,137057,114122
567,535,7,137075,114129
570,531,7,137082,114134
572,529,7,137093,114140
575,527,7,137120,114140
577,532,7,137117,114142
579,533,7,137131,114144
582,535,7,137143,114152
584,535,7,137155,114156
587,533,7,137149,114159
589,530,7,137163,114164
592,528,7,137174,114162
594,526,7,137179,114167
596,529,7,137187,114167
600,534,7,137205,114179
602,538,7,137223,114180
605,538,7,137240,114182
607,531,7,137250,114187
610,530,7,137252,114195
612,530,7,137255,114194
615,528,7,137268,114197
617,534,7,137270,114196
619,536,7,137275,114208
622,538,7,137302,114202
624,539,7,137310,114220
627,539,7,137305,114215
629,536,7,137318,114218
632,533,7,137318,114221
634,528,7,137321,114220
636,533,7,137335,114228
640,538,7,137335,114229
642,540,7,137339,114222
645,534,7,137339,114229
647,527,7,137355,114228
650,526,7,137359,114226
652,526,7,137354,114229
655,525,7,137366,114236
657,526,7,137372,114242
659,530,7,137375,114240
662,532,7,137389,114246
664,529,8,137380,114245
667,523,7,137391,114250
669,518,7,137398,114256
672,517,7,137406,114251
674,519,7,137410,114257
676,523,7,137422,114262
679,526,8,137429,114263
681,528,7,137425,114241
685,524,7,137432,114261
687,521,7,137433,114263
690,519,7,137447,114265
692,517,7,137450,114269
695,515,7,137452,114263
697,520,7,137462,114275
699,527,7,137466,114271
702,530,7,137469,114280
704,528,7,137470,114274
707,523,7,137479,114278
709,521,7,137473,114277
712,519,7,137473,114281
714,520,7,137482,114282
716,522,7,137490,114282
719,530,7,137509,114291
721,532,7,137511,114289
724,529,7,137513,114294
727,525,7,137513,114293
730,523,7,137521,114291
732,520,7,137530,114299
735,519,7,137530,114301
737,524,7,137540,114301
739,528,7,137542,114301
742,532,7,137552,114312
744,531,7,137562,114308
747,528,7,137562,114304
749,527,7,137564,114320
752,526,7,137580,114320
754,522,7,137585,114338
756,525,7,137585,114327
759,529,7,137596,114325
761,529,7,137602,114325
764,529,7,137609,114333
766,520,7,137621,114337
770,517,7,137621,114345
772,516,7,137635,114342
775,514,7,137640,114342
777,519,7,137654,114356
779,520,7,137654,114350
782,523,7,137661,114348
784,522,7,137664,114348
787,521,7,137682,114357
789,517,7,137677,114361
792,515,7,137695,114371
794,510,7,137695,114367
796,514,7,137698,114358
799,523,7,137710,114373
801,522,7,137710,114380
804,520,7,137727,114375
806,518,7,137736,114375
809,517,7,137755,114380
812,513,7,137752,114392
815,513,7,137766,114393
817,523,7,137772,114395
819,530,7,137775,114395
822,556,8,137786,114396
824,562,7,137786,114405
827,571,7,137794,114410
829,578,8,137803,114410
832,583,7,137810,114410
834,577,8,137810,114414
836,573,7,137827,114416
839,568,8,137838,114416
841,560,7,137851,114422
844,550,7,137856,114424
846,523,7,137856,114437
849,508,7,137869,114437
851,501,7,137886,114437
855,493,7,137889,114444
857,495,7,137889,114440
859,501,7,137899,114451
862,505,7,137916,114451
864,507,8,137927,114445
867,505,7,137939,114456
869,505,7,137939,114467
872,504,7,137962,114471
874,504,7,137961,114471
876,505,7,137977,114474
879,514,7,137977,114483
881,517,7,137994,114484
884,516,7,138002,114484
886,513,7,138015,114489
889,508,7,138015,114498
891,506,7,138038,114498
894,504,7,138045,114505
897,510,7,138045,114514
899,516,7,138056,114509
902,519,7,138075,114509
904,518,7,138088,114513
907,512,7,138088,114527
909,512,7,138098,114532
912,511,7,138120,114532
914,510,7,138127,114533
916,511,7,138128,114536
919,520,7,138128,114548
921,523,7,138139,114553
924,522,7,138162,114553
926,519,7,138175,114555
929,516,7,138175,114555
931,515,7,138185,114562
934,510,7,138193,114562
936,515,7,138215,114570
939,525,7,138215,114576
942,525,7,138219,114584
944,523,7,138222,114581
947,519,7,138240,114584
949,518,7,138244,114587
952,517,7,138252,114587
954,517,7,138267,114597
956,519,7,138280,114590
959,525,7,138277,114596
961,533,7,138300,114598
964,533,7,138302,114599
966,529,7,138302,114608
969,520,7,138316,114617
971,517,7,138316,114617
974,518,7,138325,114613
976,521,7,138336,114621
978,525,7,138343,114625
982,528,7,138353,114618
984,531,7,138362,114633
987,527,7,138380,114640
989,525,7,138380,114642
992,522,7,138378,114642
994,520,7,138391,114651
996,524,7,138416,114652
999,528,7,138410,114654
1001,532,7,138415,114658
1004,532,7,138432,114655
1006,525,7,138435,114660
1009,523,7,138440,114667
1011,521,7,138436,114661
1014,518,7,138449,114671
1016,525,7,138454,114668
1018,530,7,138466,114673
1021,533,7,138467,114676
1024,533,7,138483,114680
1027,529,7,138482,114683
1029,526,7,138485,114682
1032,523,7,138498,114692
1034,522,7,138502,114678
1036,524,7,138496,114676
1039,534,7,138484,114677
1041,536,7,138488,114675
1044,535,7,138478,114668
1046,532,7,138467,114655
1049,530,7,138450,114650
1051,528,7,138426,114637
1054,526,7,138391,114620
1056,532,7,138347,114596
1058,534,7,138295,114575
1061,537,7,138227,114546
1063,538,7,138153,114517
1067,537,7,138064,114482
1069,534,7,137970,114442
1072,532,7,137870,114420
1074,528,7,137756,114369
1076,530,7,137642,114330
1079,535,7,137532,114284
1081,538,8,137402,114238
1084,540,7,137277,114194
1086,533,7,137148,114148
1089,531,7,137006,114111
1091,531,7,136877,114066
1094,528,7,136748,114018
1096,532,7,136614,113974
1098,533,7,136501,113935
1101,534,7,136404,113899
1103,533,7,136320,113878
1106,530,7,136234,113847
1108,525,7,136181,113827
1112,520,7,136113,113804
1114,512,7,136064,113796
1116,514,7,136034,113777
1119,517,7,135995,113769
1121,518,7,135979,113757
1124,513,7,135946,113748
1126,505,7,135921,113743
1129,503,7,135909,113738
1131,501,7,135887,113728
1134,499,7,135879,113718
1136,500,7,135862,113726
1138,504,7,135848,113712
1141,507,7,135839,113708
1143,506,7,135837,113707
1146,500,7,135830,113710
1148,494,7,135827,113705
1152,493,7,135837,113701
1154,495,7,135821,113707
1156,498,7,135829,113705
1159,501,7,135834,113708
1161,504,7,135836,113681
1164,503,7,135835,113715
1166,500,7,135849,113712
1169,497,7,135862,113713
1171,494,7,135862,113716
1174,492,7,135868,113721
1176,496,7,135884,113726
1178,501,7,135900,113732
1181,504,7,135922,113733
1183,506,7,135927,113735
1186,502,7,135933,113745
1188,499,7,135955,113750
1191,498,7,135955,113755
1193,500,7,135991,113765
1196,502,7,136009,113765
1199,512,7,136034,113775
1201,515,7,136054,113778
1204,514,7,136070,113792
1206,510,7,136091,113797
1209,507,7,136115,113795
1211,504,7,136135,113818
1214,503,7,136135,113817
1216,508,7,136171,113818
1218,512,7,136197,113818
1221,518,7,136231,113850
1223,514,7,136244,113851
1226,510,7,136244,113856
1228,508,7,136281,113859
1231,509,7,136301,113859
1233,507,7,136328,113898
1235,509,7,136341,113882
1239,517,7,136362,113883
1241,519,7,136362,113901
1244,518,7,136398,113903
1246,514,7,136418,113914
1249,510,7,136418,113920
1251,508,7,136451,113922
1254,507,7,136467,113922
1256,512,7,136481,113937
1258,515,7,136481,113944
1261,518,7,136520,113950
1263,518,7,136535,113950
1266,518,7,136563,113948
1268,514,7,136568,113975
1271,513,7,136582,113970
1273,508,7,136582,113976
1275,513,7,136603,113989
1278,520,7,136642,113988
1281,520,7,136642,114000
1284,519,7,136679,114005
1286,517,7,136701,114005
1289,514,7,136732,114011
1291,510,8,136748,114026
1294,508,7,136772,114044
1296,511,7,136789,114037
1298,515,7,136802,114037
1301,524,7,136825,114053
1303,520,7,136825,114067
1306,515,7,136852,114067
1308,514,7,136881,114067
1311,512,7,136895,114074
1313,513,7,136895,114082
1315,516,7,136904,114087
1318,519,7,136927,114087
1320,522,8,136934,114095
1324,522,7,136942,114096
1326,513,7,136942,114094
1329,511,7,136950,114097
1331,511,7,136955,114097
1334,509,7,136950,114103
1336,512,7,136950,114096
1338,516,7,136959,114093
1341,518,7,136946,114093
1343,517,7,136929,114095
1346,516,7,136940,114098
1348,512,7,136940,114087
1351,510,7,136924,114082
1353,508,7,136913,114082
1355,508,7,136901,114077
1358,516,7,136901,114072
1360,519,7,136890,114063
1363,518,7,136843,114063
1366,515,7,136845,114055
1369,509,7,136845,114038
1371,508,7,136795,114038
1374,505,7,136780,114038
1376,510,7,136780,114020
1378,515,7,136758,114010
1381,518,7,136722,114010
1383,518,7,136700,114000
1548,510,7,137096,114145
1551,507,7,137115,114154
1553,505,7,137140,114157
1555,506,7,137158,114166
1548,510,7,137096,114145
1551,507,7,137115,114154
1553,505,7,137140,114157
1555,506,7,137158,114166
1558,515,7,137167,114175
1560,517,7,137186,114183
1563,517,7,137192,114174
1565,514,7,137199,114180
1568,511,7,137218,114190
1570,509,7,137228,114201
1573,506,7,137253,114203
1575,511,7,137257,114207
1577,514,7,137267,114211
1581,517,7,137292,114206
1583,518,7,137307,114217
1586,514,7,137308,114232
1588,512,7,137323,114233
1591,511,7,137346,114236
1593,508,7,137353,114239
1595,513,7,137358,114245
1598,519,7,137365,114246
1600,522,7,137388,114250
1603,519,7,137390,114255
1605,513,7,137393,114261
1608,512,7,137424,114266
1610,512,7,137433,114269
1613,510,7,137440,114273
1615,510,7,137451,114274
1617,514,7,137454,114288
1620,517,7,137463,114285
1623,515,7,137471,114286
1626,510,7,137486,114289
1628,504,7,137487,114288
1631,503,7,137498,114293
1633,504,7,137504,114296
1635,506,7,137521,114303
1638,509,7,137522,114306
1640,511,7,137531,114290
1643,512,7,137538,114307
1645,508,7,137549,114313
1648,506,7,137553,114321
1650,502,7,137563,114321
1653,498,7,137568,114321
1655,500,7,137572,114323
1657,507,7,137580,114326
1660,511,7,137586,114328
1662,511,7,137588,114334
1666,506,7,137596,114333
1668,502,7,137601,114336
1671,501,7,137598,114337
1673,500,7,137607,114338
1675,503,7,137616,114326
1678,512,7,137626,114344
1680,514,7,137630,114345
1683,512,7,137637,114343
1685,508,7,137635,114340
1688,505,7,137642,114347
1690,502,7,137660,114354
1693,502,7,137650,114346
1695,505,7,137665,114351
1697,509,7,137664,114351
1700,516,7,137676,114360
1702,512,7,137675,114364
1705,508,7,137675,114363
1708,507,7,137679,114358
1711,506,7,137687,114358
1713,503,7,137702,114387
1715,504,7,137697,114368
1718,513,7,137708,114370
1720,515,7,137708,114379
1723,514,7,137707,114370
1725,510,7,137713,114381
1728,506,7,137713,114382
1730,506,7,137728,114378
1733,504,7,137724,114378
1735,508,7,137735,114386
1737,510,7,137743,114387
1740,515,7,137747,114391
1742,515,7,137747,114392
1745,511,7,137757,114395
1747,509,7,137758,114395
1751,507,7,137778,114406
1753,503,7,137773,114396
1755,505,7,137773,114397
1758,513,7,137782,114403
1760,516,7,137793,114403
1763,513,7,137797,114408
1765,508,7,137797,114401
1768,505,7,137795,114410
1770,505,7,137814,114410
1773,505,7,137812,114411
1775,510,7,137817,114414
1777,513,7,137817,114419
1780,517,7,137828,114429
1782,518,7,137832,114429
1785,517,7,137834,114425
1787,522,7,137834,114427
1790,532,7,137839,114427
1793,542,7,137850,114427
1795,554,7,137861,114433
1798,581,7,137862,114436
1800,583,7,137862,114431
1803,579,7,137868,114438
1805,572,7,137874,114438
1808,564,7,137885,114442
1810,539,7,137885,114444
1813,524,7,137899,114442
1815,515,7,137905,114442
1817,509,7,137917,114451
1820,496,7,137919,114453
1822,491,7,137922,114453
1825,484,7,137922,114458
1827,484,7,137909,114459
1830,484,7,137939,114459
1832,485,7,137939,114461
1835,490,7,137938,114465
1838,496,7,137962,114465
1840,501,7,137950,114471
1843,499,7,137977,114477
1845,497,8,137981,114477
1848,495,7,137981,114484
1850,493,7,137991,114485
1853,492,7,138001,114485
1855,495,7,138001,114489
1857,501,7,138016,114498
1860,504,7,138030,114498
1862,504,7,138039,114501
1865,498,7,138039,114504
1867,497,7,138058,114504
1870,496,7,138058,114505
1872,496,7,138039,114512
1874,499,7,138079,114512
1878,506,7,138079,114512
1880,509,7,138094,114523
1883,508,7,138108,114523
1885,505,7,138119,114526
1888,500,7,138119,114536
1890,500,7,138137,114536
1893,498,7,138137,114539
1895,501,7,138140,114544
1897,505,7,138149,114544
1900,510,7,138175,114556
1902,511,7,138181,114558
1905,509,7,138181,114558
1907,507,7,138199,114569
1910,506,7,138207,114569
1912,503,7,138221,114571
1914,504,7,138221,114574
1917,507,7,138222,114573
1920,512,7,138241,114573
1923,513,7,138253,114582
1925,512,7,138259,114586
1928,508,7,138259,114597
1930,505,7,138280,114598
1933,503,7,138285,114598
1935,505,7,138288,114596
1937,511,7,138301,114603
1940,515,7,138311,114613
1942,519,7,138318,114614
1945,515,7,138331,114616
1947,512,7,138331,114616
1950,510,7,138338,114625
1952,505,7,138354,114628
1954,506,7,138360,114628
1957,511,7,138368,114640
1959,518,7,138380,114639
1963,519,7,138396,114639
1965,512,7,138402,114647
1968,510,7,138399,114644
1970,508,7,138410,114647
1973,505,7,138417,114652
1975,506,7,138414,114656
1977,514,7,138419,114662
1980,517,7,138437,114660
1982,518,7,138448,114665
1985,516,7,138454,114658
1987,512,7,138465,114668
1990,509,7,138476,114672
1992,508,7,138465,114666
1994,508,7,138473,114675
1997,514,7,138479,114678
1999,519,7,138487,114681
2002,520,7,138484,114675
2004,514,7,138477,114682
2008,513,7,138479,114685
2010,512,7,138479,114675
2013,510,7,138482,114681
2015,514,7,138467,114665
2017,518,7,138452,114658
2020,520,7,138422,114650
2022,521,7,138394,114628
2025,520,7,138352,114614
2027,518,7,138308,114595
2030,517,7,138247,114572
2032,514,7,138175,114541
2034,515,7,138100,114511
2037,521,7,138016,114472
2039,525,7,137924,114442
2042,526,7,137832,114405
2044,519,7,137718,114367
2048,519,7,137591,114329
2050,520,7,137472,114281
2053,518,7,137351,114239
2055,522,7,137209,114195
2057,524,7,137087,114153
2060,526,7,136962,114104
2062,526,7,136835,114067
2065,523,7,136706,114021
2067,520,7,136601,113984
2070,516,7,136498,113954
2072,509,7,136407,113926
2074,511,7,136340,113901
2077,515,7,136267,113882
2079,516,7,136211,113859
2082,512,7,136144,113839
2084,504,7,136109,113834
2087,501,7,136082,113813
2089,499,7,136049,113807
2093,496,7,136033,113798
2095,495,7,135999,113788
2097,499,7,135974,113777
2100,502,7,135960,113778
2102,500,7,135944,113766
2105,495,7,135938,113768
2107,488,7,135923,113761
2110,488,7,135917,113758
2112,487,7,135913,113754
2114,489,7,135899,113756
2117,496,7,135908,113760
2119,497,7,135910,113757
2122,495,7,135907,113756
2124,494,7,135903,113746
2127,492,7,135905,113726
2129,490,7,135907,113751
2132,488,7,135912,113764
2135,491,7,135926,113757
2137,498,7,135934,113762
2140,502,7,135939,113763
2142,503,7,135957,113769
2145,497,7,135961,113777
2147,494,7,135990,113780
2150,493,7,135990,113781
2152,492,7,136001,113785
2154,494,7,136017,113792
2157,503,7,136036,113805
2159,506,7,136049,113801
2162,505,7,136061,113811
2164,501,7,136088,113815
2167,499,7,136096,113820
2169,496,7,136124,113829
2172,496,7,136135,113837
2174,498,7,136164,113836
2177,504,7,136174,113836
2180,512,7,136198,113856
2182,509,7,136223,113855
2185,506,7,136223,113867
2187,505,7,136258,113877
2190,504,7,136274,113877
2192,501,7,136309,113892
2194,502,7,136324,113904
2197,511,7,136357,113914
2199,513,7,136357,113911
2202,513,7,136387,113925
2204,508,7,136409,113935
2207,505,7,136409,113937
2209,504,7,136446,113947
2212,503,7,136472,113947
2214,506,7,136504,113964
2216,508,7,136518,113963
2220,514,7,136542,113971
2222,514,7,136542,113983
2225,511,7,136574,113984
2227,508,7,136598,113984
2230,507,7,136616,114001
2232,503,7,136647,114011
2234,505,7,136647,114019
2237,512,7,136685,114028
2239,516,7,136709,114028
2242,514,7,136727,114041
2244,509,7,136727,114049
2247,505,7,136753,114058
2249,506,7,136792,114058
2252,506,7,136823,114061
2254,510,7,136835,114080
2256,513,7,136835,114090
2259,516,7,136881,114102
2262,515,7,136904,114102
2265,511,7,136926,114111
2267,506,7,136926,114120
2270,504,7,136944,114124
2272,503,7,136995,114124
2274,504,7,137016,114132
2277,513,7,137034,114150
2279,513,7,137034,114153
2282,512,7,137068,114159
2284,511,7,137077,114159
2287,508,7,137088,114162
2289,504,7,137088,114178
2292,502,7,137112,114179
2294,503,7,137122,114179
2296,506,7,137140,114176
2299,511,7,137140,114177
2301,511,7,137137,114177
2305,507,7,137133,114181
2307,501,7,137133,114184
2310,500,7,137149,114184
2312,500,7,137149,114187
2314,503,7,137142,114178
2317,507,7,137125,114178
2319,510,7,137108,114168
2322,509,7,137113,114172
2324,506,7,137108,114172
2327,502,7,137108,114160
2329,501,7,137097,114156
2332,500,7,137035,114156
2334,501,7,137035,114146
2336,507,7,137052,114143
2339,509,7,137021,114143
2341,510,7,137017,114136
2344,504,7,137017,114126
2347,503,7,136975,114126
2350,500,7,136975,114102
2352,499,7,136922,114100
2354,501,7,136907,114100
2357,508,7,136907,114086
2359,510,7,136887,114082
2362,509,7,136851,114082
2364,506,7,136829,114075
2367,501,7,136829,114061
2369,501,7,136793,114061
2372,499,7,136793,114050
2374,501,7,136775,114050
2376,506,7,136760,114050
2379,511,7,136742,114044
2381,513,7,136713,114039
2384,510,7,136713,114024
2386,508,7,136706,114019
2390,506,7,136682,114019
2392,503,7,136678,114022
2394,503,7,136678,114014
2397,505,7,136669,114017
2399,510,7,136667,114017
2402,511,7,136667,114011
2404,510,7,136653,114017
2407,505,7,136653,114017
2409,502,7,136654,114015
2412,500,7,136658,114015
2414,502,7,136658,114019
2416,507,7,136657,114020
2419,512,7,136667,114020
2421,515,7,136689,114024
2424,512,7,136685,114021
2426,507,7,136680,114024
2429,503,7,136696,114033
2432,501,7,136704,114034
2434,501,7,136715,114037
2437,504,7,136724,114042
2439,513,7,136730,114042
2442,512,7,136765,114051
2444,508,7,136765,114059
2447,505,7,136782,114059
2449,501,7,136795,114072
2452,500,7,136829,114071
2454,501,7,136823,114081
2456,506,7,136846,114085
2459,510,7,136861,114087
2461,511,7,136875,114099
2464,508,7,136897,114107
2466,504,7,136914,114109
2469,501,7,136923,114117
2471,500,7,136942,114123
2473,502,7,136973,114127
2477,507,7,136978,114140
2479,510,7,137009,114143
2482,511,7,137020,114148
2484,508,7,137043,114152
2487,504,7,137051,114155
2489,501,7,137066,114164
2492,499,7,137097,114171
2494,501,7,137109,114173
2496,504,7,137114,114183
2499,510,7,137138,114183
2501,512,7,137155,114192
2504,505,7,137167,114207
2506,503,7,137202,114206
2509,502,7,137206,114217
2511,503,7,137223,114218
2513,503,7,137240,114228
2516,512,7,137266,114229
2519,515,7,137276,114238
2522,515,7,137295,114242
2524,513,7,137295,114247
2527,511,7,137328,114247
2529,508,7,137347,114257
2532,507,7,137348,114270
2534,509,7,137366,114267
2536,513,7,137383,114275
2539,520,7,137383,114283
2541,516,7,137403,114283
2544,513,7,137411,114284
2546,509,7,137436,114291
2549,508,7,137433,114294
2551,506,7,137450,114303
2553,504,7,137475,114301
2556,508,7,137489,114307
2558,512,7,137497,114313
2562,513,7,137505,114313
2564,504,7,137522,114324
2567,502,7,137541,114331
2569,502,7,137548,114338
2572,499,7,137566,114337
2574,501,7,137560,114347
2576,503,7,137575,114346
2579,505,7,137598,114346
2581,509,7,137596,114358
2584,505,7,137613,114341
2586,501,7,137623,114357
2589,498,7,137631,114362
2591,494,7,137633,114370
2593,498,7,137645,114367
2596,504,7,137660,114379
2598,508,7,137663,114377
2601,506,7,137674,114383
2604,499,7,137687,114386
2607,497,7,137688,114385
2609,498,7,137702,114368
2612,497,7,137706,114399
2614,496,7,137711,114399
2616,501,7,137721,114404
2619,506,7,137733,114407
2621,506,7,137738,114407
2624,501,7,137744,114413
2626,496,7,137749,114412
2629,496,7,137762,114416
2631,498,7,137759,114413
2633,500,7,137769,114423
2636,502,7,137785,114423
2638,507,7,137785,114418
2641,505,7,137792,114423
2643,501,7,137800,114433
2647,498,7,137804,114438
2649,496,7,137813,114434
2652,494,7,137819,114445
2654,495,7,137836,114439
2656,502,7,137824,114445
2659,506,7,137843,114447
2661,507,7,137845,114446
2664,503,7,137845,114455
2666,500,7,137859,114454
2669,499,7,137863,114454
2671,496,7,137877,114473
2673,496,7,137882,114461
2676,506,7,137883,114461
2678,508,7,137883,114472
2681,508,7,137892,114471
2683,503,7,137902,114482
2686,499,7,137902,114479
2689,497,7,137912,114477
2692,495,7,137910,114477
2694,498,7,137928,114486
2696,501,7,137932,114484
2699,508,7,137939,114489
2701,508,7,137939,114492
2704,504,7,137939,114497
2706,502,7,137949,114497
2709,503,7,137968,114507
2711,507,7,137961,114497
2713,513,7,137961,114505
2716,531,7,137979,114506
2718,545,7,137988,114506
2721,567,7,137999,114521
2723,568,7,137999,114520
2726,567,7,137996,114522
2728,564,7,138006,114522
2732,560,7,138026,114526
2734,545,7,138031,114527
2736,539,7,138031,114536
2739,530,7,138039,114542
2741,521,7,138045,114542
2744,505,7,138050,114538
2746,483,7,138050,114549
2749,478,7,138060,114548
2751,477,7,138069,114548
2753,479,7,138089,114552
2756,492,7,138092,114559
2758,494,7,138092,114562
2761,497,7,138103,114566
2763,497,7,138115,114566
2766,496,7,138123,114573
2768,494,7,138123,114580
2771,492,7,138129,114578
2774,493,7,138140,114578
2776,497,7,138158,114581
2779,503,7,138159,114585
2781,504,7,138169,114585
2784,501,7,138169,114591
2786,495,7,138169,114601
2789,495,7,138195,114601
2791,496,7,138195,114601
2793,499,7,138210,114614
2796,503,7,138223,114614
2798,507,7,138205,114622
2801,506,7,138229,114624
2803,504,7,138244,114624
2806,500,7,138244,114626
2808,500,7,138254,114629
2811,499,7,138269,114629
2813,501,7,138269,114633
2816,506,7,138282,114642
2819,510,7,138303,114642
2821,511,7,138305,114643
2824,505,7,138305,114652
2826,504,7,138327,114652
2829,502,7,138327,114653
2831,501,7,138296,114656
2833,503,7,138355,114656
2836,510,7,138355,114666
2838,514,7,138358,114669
2841,514,7,138375,114669
2843,511,7,138391,114679
2846,506,7,138391,114687
2848,506,7,138400,114687
2851,504,7,138400,114688
2853,505,7,138401,114691
2855,510,7,138417,114691
2859,515,7,138433,114692
2861,519,7,138433,114701
2864,517,8,138433,114697
2866,515,7,138452,114700
2869,514,7,138457,114700
2871,510,7,138459,114703
2873,510,7,138459,114717
2876,512,7,138473,114719
2878,518,7,138477,114719
2881,520,7,138497,114716
2883,519,7,138504,114720
2886,515,7,138504,114736
2888,511,7,138520,114734
2891,509,8,138517,114734
2893,510,7,138524,114738
2895,516,7,138532,114739
2898,521,7,138530,114744
2900,526,7,138545,114748
2904,521,7,138556,114752
2906,518,7,138556,114750
2909,516,7,138559,114756
2911,510,7,138568,114757
2913,513,7,138572,114757
2916,518,7,138579,114763
2918,523,7,138586,114752
2921,525,7,138590,114758
2923,521,7,138597,114759
2926,519,7,138601,114765
2928,519,7,138597,114765
2931,517,7,138597,114764
2933,515,7,138602,114764
2935,521,7,138595,114757
2938,525,7,138585,114763
2940,527,7,138573,114751
2944,523,7,138558,114733
2946,519,7,138527,114730
2949,518,7,138493,114716
2951,516,7,138462,114695
2953,516,7,138419,114672
2956,524,7,138367,114651
2958,527,7,138298,114622
2961,527,7,138216,114596
2963,525,7,138136,114562
2966,521,7,138049,114517
2968,520,7,137947,114488
2971,518,7,137841,114447
2973,519,7,137729,114408
2975,521,7,137619,114376
2978,527,7,137496,114334
2980,529,7,137381,114290
2983,523,7,137271,114254
2985,519,7,137144,114211
2989,518,7,137032,114171
2991,517,7,136907,114121
2993,516,7,136797,114083
2996,523,7,136680,114049
2998,524,7,136576,114019
3001,524,7,136502,113994
3003,519,7,136424,113962
3006,513,7,136369,113932
3008,506,7,136307,113924
3011,503,7,136252,113907
3013,503,7,136202,113884
3015,506,7,136172,113867
3018,511,7,136126,113865
3020,507,7,136100,113857
3023,504,7,136091,113844
3025,500,7,136072,113835
3028,499,7,136045,113833
3031,496,7,136041,113834
3033,494,7,136025,113821
3036,497,7,136012,113813
3038,501,7,136005,113806
3041,502,7,135995,113804
3043,494,7,135990,113811
3046,493,7,135990,113807
3048,493,7,135992,113809
3051,492,7,135991,113809
3053,495,7,135987,113812
3055,498,7,135994,113819
3058,501,7,135997,113817
3060,506,7,136017,113808
3063,505,7,136019,113808
3065,498,7,136024,113821
3068,496,7,136031,113818
3070,492,7,136047,113825
3073,492,7,136057,113836
3076,498,7,136062,113838
3078,503,7,136079,113845
3081,505,7,136097,113850
3083,498,7,136104,113859
3086,498,7,136104,113860
3088,500,7,136153,113866
3091,500,7,136163,113872
3093,501,7,136176,113878
3095,504,7,136210,113888
3098,507,7,136231,113891
3100,511,7,136238,113882
3103,509,7,136256,113913
3105,505,7,136279,113916
3108,504,7,136299,113915
3110,500,7,136305,113929
3112,502,7,136339,113932
3116,507,7,136355,113936
3118,513,7,136371,113947
3121,512,7,136394,113956
3123,506,7,136405,113957
3126,504,7,136405,113966
3128,505,7,136446,113977
3131,504,7,136467,113977
3133,505,7,136482,113977
3135,508,7,136497,113985
3138,514,7,136507,113997
3140,514,7,136534,114001
3143,510,7,136547,114003
3145,507,7,136553,114012
3148,506,7,136569,114026
3150,501,7,136579,114011
3152,503,7,136579,114020
3155,510,7,136612,114028
3158,514,7,136620,114028
3161,514,7,136645,114042
3163,509,7,136650,114036
3166,506,7,136650,114049
3168,506,7,136682,114049
3171,505,7,136698,114049
3173,505,7,136713,114063
3175,509,7,136713,114072
3178,513,7,136745,114076
3180,513,7,136767,114076
3183,509,7,136791,114091
3185,502,7,136803,114094
3188,499,7,136803,114102
3190,497,7,136844,114109
3192,497,7,136860,114109
3195,506,7,136880,114125
3197,506,7,136880,114130
3201,503,7,136915,114132
3203,500,7,136931,114132
3206,499,7,136951,114145
3208,497,7,136964,114159
3211,495,7,136982,114157
3213,492,7,136988,114157
3215,495,7,136997,114157
3218,506,7,137000,114171
3220,506,7,137000,114171
3223,502,7,137013,114173
3225,501,7,137030,114173
3228,503,7,137036,114175
3230,502,7,137039,114173
3232,502,7,137039,114177
3235,508,7,137031,114175
3237,512,7,137031,114175
3240,513,7,137035,114176
3243,507,7,137035,114177
3246,504,7,137031,114164
3248,504,7,137007,114164
3251,501,7,137003,114164
3253,504,7,136998,114154
3255,507,7,136998,114150
3258,509,7,136971,114150
3260,512,7,136952,114147
3263,512,7,136953,114135
3265,508,7,136953,114125
3268,505,7,136926,114128
3270,503,7,136906,114128
3272,502,7,136896,114119
3275,508,7,136882,114110
3277,511,7,136860,114110
3280,511,7,136860,114094
3282,507,7,136837,114092
3286,504,7,136818,114092
3288,502,8,136818,114086
3291,499,7,136808,114078
3293,500,7,136773,114078
3295,502,7,136764,114077
3298,509,7,136764,114061
3300,508,7,136706,114061
3303,504,7,136728,114058
3305,503,7,136726,114058
3308,500,7,136726,114056
3310,499,7,136696,114056
3312,498,7,136699,114051
3315,506,7,136699,114045
3317,510,7,136656,114044
3320,510,7,136675,114044
3322,506,7,136676,114044
3325,501,7,136676,114043
3328,499,7,136669,114036
3331,497,7,136680,114036
3333,499,7,136677,114042
3335,510,7,136677,114042
3338,515,7,136674,114042
3340,517,7,136677,114045
3343,511,7,136677,114048
3345,508,7,136682,114053
3348,507,7,136705,114053
3350,504,7,136700,114056
3352,502,7,136700,114060
3355,504,7,136722,114062
3357,511,7,136729,114062
3360,513,7,136762,114071
3362,513,7,136761,114074
3365,509,7,136761,114077
3367,506,7,136777,114081
3371,504,7,136783,114081
3373,504,7,136795,114091
3375,513,7,136808,114092
3378,518,7,136841,114092
3380,521,7,136841,114108
3383,518,7,136846,114114
3385,510,7,136872,114121
3388,505,7,136884,114126
3390,499,7,136898,114132
3392,501,7,136912,114132
3395,506,7,136926,114135
3397,511,7,136948,114141
3400,514,7,136969,114150
3402,510,7,136986,114162
3405,506,7,137025,114162
3407,505,7,137039,114170
3410,503,7,137039,114185
3412,499,7,137063,114185
3415,504,7,137073,114182
3418,507,7,137092,114196
3420,509,7,137108,114192
3423,505,7,137129,114196
3425,499,7,137147,114204
3428,498,7,137156,114212
3430,495,7,137174,114222
3432,493,7,137190,114226
3435,498,7,137216,114233
3437,508,7,137231,114238
3440,507,7,137242,114247
3442,504,7,137263,114252
3445,500,7,137283,114252
3447,497,7,137309,114262
3450,495,7,137318,114267
3452,495,7,137337,114269
3454,497,7,137345,114283
3458,503,7,137359,114289
3460,505,7,137372,114292
3463,502,7,137386,114297
3465,496,7,137410,114303
3468,494,7,137424,114304
3470,493,7,137444,114310
3472,493,7,137467,114321
3475,501,7,137483,114326
3477,503,7,137500,114332
3480,504,7,137502,114332
3482,502,7,137522,114341
3485,499,7,137530,114342
3487,497,7,137552,114352
3490,494,7,137553,114360
3492,495,7,137570,114366
3494,499,7,137591,114370
3497,503,7,137611,114375
3500,505,7,137625,114379
3503,502,7,137644,114392
3505,497,7,137655,114391
3508,497,7,137657,114395
3510,496,7,137666,114400
3512,495,7,137686,114399
3515,504,7,137684,114401
3517,505,7,137703,114404
3520,505,7,137717,114409
3522,503,7,137728,114415
3525,499,7,137735,114420
3527,497,7,137738,114424
3530,494,7,137747,114421
3532,492,7,137750,114434
3534,499,7,137771,114431
3537,504,7,137775,114434
3539,504,7,137781,114437
3543,497,7,137782,114438
3545,493,7,137794,114449
3548,495,7,137806,114438
3550,498,7,137810,114447
3552,504,7,137803,114446
3555,527,7,137812,114447
3557,541,7,137822,114454
3560,550,7,137821,114451
3562,556,7,137825,114462
3565,557,7,137825,114458
3567,549,7,137836,114456
3570,542,7,137844,114461
3572,536,7,137838,114462
3574,530,7,137835,114458
3577,518,7,137849,114458
3579,505,7,137850,114462
3582,495,7,137847,114455
3585,480,7,137851,114464
3588,474,7,137848,114462
3590,469,7,137849,114466
3592,469,7,137848,114466
3595,473,7,137844,114458
3597,480,7,137838,114438
3600,485,7,137842,114442
3602,482,7,137847,114455
3605,481,7,137839,114462
3607,485,7,137834,114454
3610,484,7,137837,114458
3612,485,7,137838,114451
3614,493,7,137830,114451
3617,495,7,137839,114451
3619,497,7,137825,114456
3622,492,7,137822,114451
3624,489,7,137818,114443
3628,488,7,137818,114448
3630,488,7,137821,114452
3632,488,7,137822,114452
3635,496,7,137820,114449
3637,499,7,137824,114445
3640,499,7,137815,114447
3642,497,7,137805,114439
3645,495,7,137808,114444
3647,491,7,137806,114443
3650,489,7,137806,114432
3652,491,7,137806,114440
3654,495,7,137803,114440
3657,502,7,137813,114441
3659,500,7,137797,114436
3662,497,7,137797,114436
3664,496,7,137806,114434
3667,496,7,137804,114434
3670,492,7,137805,114457
3672,492,7,137805,114440
3675,498,7,137786,114437
3677,502,7,137787,114437
3680,504,7,137797,114438
3682,499,7,137799,114432
3685,497,7,137799,114428
3687,497,7,137788,114438
3690,496,7,137783,114438
3692,496,7,137792,114439
3694,499,7,137792,114431
3697,503,7,137778,114435
3699,506,7,137774,114435
3702,506,7,137772,114427
3704,500,7,137763,114426
3707,499,7,137764,114429
3709,494,7,137764,114422
3712,495,7,137759,114429
3715,504,7,137756,114432
3717,504,7,137756,114427
3720,506,7,137747,114427
3722,505,7,137758,114427
3725,503,7,137748,114426
3727,500,7,137748,114418
3730,497,7,137733,114416
3732,496,7,137740,114416
3734,499,7,137745,114414
3737,505,7,137744,114424
3739,505,7,137741,114424
3742,503,7,137733,114420
3744,497,7,137733,114421
3747,496,7,137750,114422
3749,497,7,137744,114422
3751,497,7,137757,114428
3755,504,7,137757,114429
3757,508,7,137755,114434
3760,508,7,137755,114434
3762,505,7,137763,114434
3765,502,7,137777,114435
3767,498,7,137777,114436
3770,496,7,137752,114439
3772,496,7,137774,114439
3774,499,7,137767,114433
3777,508,7,137767,114423
3779,507,7,137765,114427
3782,504,7,137717,114424
3784,502,7,137734,114424
3787,500,7,137734,114417
3789,498,7,137695,114417
3791,498,7,137674,114407
3794,507,7,137674,114378
3796,511,7,137609,114362
3800,512,7,137557,114362
3802,507,7,137512,114348
3805,502,7,137512,114308
3807,502,7,137378,114308
3810,500,7,137378,114270
3812,502,7,137307,114243
3814,506,7,137189,114243
3817,511,7,137189,114186
3819,511,7,137120,114156
3822,508,7,136929,114156
3824,505,7,136858,114130
3827,503,7,136858,114077
3829,501,7,136782,114046
3831,496,7,136712,114046
3834,501,7,136570,114023
3836,508,7,136570,113979
3840,503,7,136495,113954
3842,497,7,136433,113934
3845,495,7,136312,113934
3847,492,7,136312,113897
3850,491,7,136234,113897
3852,490,7,136188,113882
3854,492,7,136188,113856
3857,494,7,136155,113844
3859,490,7,136124,113832
3862,485,7,136085,113819
3864,482,7,136069,113814
3867,481,7,136054,113814
3869,480,7,136035,113807
3871,480,7,136022,113805
3874,485,7,136010,113798
3876,494,7,135996,113795
3879,494,7,135984,113791
3881,490,7,135984,113778
3885,486,7,135971,113778
3887,479,7,135966,113780
3890,479,7,135959,113780
3892,479,7,135967,113780
3894,484,7,135967,113771
3897,489,7,135966,113780
3899,497,7,135983,113775
3902,493,7,135976,113781
3904,490,7,135983,113781
3907,487,7,135994,113781
3909,483,7,135990,113791
3911,485,7,136016,113796
3914,489,7,136019,113801
3916,495,7,136022,113795
3919,497,7,136037,113801
3921,493,7,136053,113804
3924,491,7,136065,113811
3927,490,7,136076,113814
3930,489,7,136095,113822
3932,489,7,136111,113832
3934,494,7,136132,113837
3937,499,7,136141,113842
3939,500,7,136157,113846
3942,498,7,136176,113851
3944,495,7,136191,113861
3947,493,7,136211,113873
3949,493,7,136229,113873
3951,491,7,136244,113879
3954,499,7,136255,113883
3956,502,7,136279,113898
3959,504,7,136312,113893
3961,502,7,136321,113897
3964,499,7,136340,113909
3966,497,7,136358,113916
3970,496,7,136373,113918
3972,497,7,136386,113925
3974,500,7,136410,113928
3977,504,7,136421,113941
3979,506,7,136435,113950
3982,507,7,136453,113951
3984,504,7,136470,113952
3987,502,7,136478,113960
3989,498,7,136500,113962
3991,499,7,136503,113974
3994,504,7,136538,113975
3996,509,7,136563,113986
3999,512,7,136579,113979
4001,507,7,136599,113998
4004,505,7,136609,114007
4006,506,7,136630,114016
4009,504,7,136658,114019
4012,505,7,136674,114029
4014,508,7,136693,114039
4017,512,7,136722,114045
4019,515,7,136752,114048
4022,513,7,136763,114056
4024,508,7,136793,114076
4027,506,7,136819,114079
4029,501,7,136825,114086
4031,504,7,136862,114097
4034,509,7,136877,114093
4036,514,7,136898,114104
4039,517,7,136911,114112
4041,512,7,136934,114127
4044,510,7,136949,114121
4046,513,7,136972,114134
4049,512,7,136981,114135
4051,511,7,137003,114141
4054,515,7,137000,114153
4057,521,7,137011,114145
4059,524,7,137009,114147
4062,522,7,137012,114149
4064,517,7,137026,114149
4067,517,7,137021,114146
4069,519,7,137025,114145
4071,521,7,137027,114141
4074,524,7,137020,114143
4076,530,7,137005,114116
4079,533,7,136999,114140
4081,530,7,136981,114129
4084,528,7,136977,114127
4086,526,7,136959,114119
4089,524,7,136945,114112
4091,523,7,136928,114100
4093,529,7,136914,114099
4097,534,7,136890,114089
4099,536,7,136875,114083
4102,531,7,136852,114076
4104,527,7,136829,114067
4107,526,7,136829,114063
4109,525,7,136783,114054
4111,524,7,136758,114054
4114,531,7,136744,114041
4116,535,7,136722,114027
4119,535,7,136714,114021
4121,532,7,136685,114013
4124,529,7,136669,114012
4126,523,7,136654,114004
4129,521,7,136654,114001
4131,522,7,136621,113997
4133,525,7,136602,113997
4136,532,7,136606,113999
4139,530,7,136588,113993
4142,527,7,136588,113987
4144,524,7,136575,113980
4147,523,7,136564,113980
4149,519,7,136552,114000
4151,519,7,136552,113983
4154,523,7,136550,113984
4156,526,7,136561,113984
4159,528,7,136567,113989
4161,521,7,136558,113982
4164,518,7,136558,113977
4166,517,7,136577,113984
4169,516,7,136577,113984
4171,516,7,136593,113998
4173,518,7,136593,113997
4176,522,7,136601,114008
4178,524,7,136621,114008
4182,524,7,136636,114008
4184,517,7,136636,114018
4187,515,7,136657,114025
4189,510,7,136657,114025
4191,512,7,136659,114027
4194,520,7,136692,114034
4196,521,7,136692,114040
4199,522,7,136716,114042
4201,520,7,136736,114042
4204,517,7,136761,114046
4206,512,7,136762,114054
4209,510,8,136789,114070
4211,505,7,136804,114075
4213,507,8,136820,114075
4216,516,7,136837,114089
4218,514,7,136837,114094
4221,509,7,136863,114102
4224,508,7,136896,114102
4227,508,7,136915,114105
4229,506,7,136915,114122
4231,506,7,136931,114130
4234,508,7,136971,114130
4236,512,8,136991,114140
4239,514,7,137006,114146
4241,509,7,137006,114152
4244,507,7,137030,114157
4246,508,7,137067,114157
4249,506,7,137079,114169
4251,505,7,137079,114173
4253,510,7,137097,114192
4256,514,7,137136,114192
4258,516,7,137160,114199
4261,515,7,137166,114200
4263,509,7,137166,114216
4267,507,7,137208,114219
4269,506,7,137223,114219
4271,504,7,137249,114226
4274,511,7,137249,114235
4276,516,7,137265,114249
4279,517,7,137302,114249
4281,515,7,137316,114258
4284,510,7,137316,114262
4286,510,7,137351,114262
4289,509,7,137361,114280
4291,510,7,137361,114279
4293,516,7,137388,114290
4296,522,7,137411,114290
4298,523,7,137427,114295
4301,518,7,137427,114305
4303,515,7,137418,114307
4306,514,7,137468,114307
4308,512,7,137488,114323
4311,512,7,137501,114325
4314,520,7,137501,114331
4316,525,7,137508,114343
4319,527,7,137543,114343
4321,525,7,137557,114340
4324,522,7,137557,114358
4326,518,7,137571,114357
4329,517,7,137580,114357
4331,518,7,137609,114360
4333,528,7,137609,114369
4336,533,7,137624,114369
4338,536,7,137624,114378
4341,530,7,137636,114374
4343,527,7,137645,114385
4346,526,7,137654,114385
4348,525,7,137663,114391
4350,525,7,137674,114389
4354,530,7,137683,114401
4356,540,7,137700,114398
4359,540,7,137724,114407
4361,538,7,137724,114411
4364,529,7,137721,114409
4366,528,7,137723,114409
4369,528,7,137733,114409
4371,527,7,137739,114415
4373,530,7,137752,114419
4376,535,7,137760,114424
4378,543,7,137773,114427
4381,540,7,137786,114429
4383,538,7,137786,114433
4386,537,7,137785,114433
4388,544,7,137788,114428
4390,554,7,137820,114440
4393,565,7,137796,114447
4396,581,7,137817,114452
4399,594,7,137824,114448
4401,599,7,137826,114448
4404,595,8,137824,114453
4406,587,7,137838,114452
4409,577,7,137834,114460
4411,557,7,137840,114453
4413,551,7,137848,114453
4416,544,8,137850,114459
4418,536,7,137862,114458
4421,522,7,137874,114467
4423,507,7,137873,114465
4426,502,7,137873,114467
4428,501,7,137880,114466
4430,501,7,137880,114470
4433,512,7,137876,114471
4435,518,7,137887,114484
4439,523,7,137889,114481
4441,522,7,137900,114477
4444,520,7,137912,114491
4446,519,7,137916,114485
4449,518,7,137919,114498
4451,516,7,137918,114491
4453,519,7,137931,114490
4456,524,7,137932,114494
4458,527,7,137930,114494
4461,527,7,137939,114496
4463,523,7,137935,114504
4466,519,7,137941,114505
4468,516,7,137940,114500
4470,515,7,137953,114503
4473,520,7,137970,114504
4475,525,7,137968,114512
4478,529,7,137982,114510
4481,527,7,137986,114510
4484,524,7,137987,114516
4486,524,7,137987,114517
4489,523,7,138005,114518
4491,523,7,137995,114523
4493,525,7,137996,114525
4496,528,7,138021,114528
4498,532,7,138035,114527
4501,534,7,138027,114526
4503,531,7,138045,114542
4506,527,7,138041,114537
4508,521,7,138043,114549
4510,522,7,138073,114548
4513,526,7,138071,114553
4515,530,7,138078,114556
4518,534,7,138073,114554
4520,527,7,138082,114559
4524,525,7,138084,114563
4526,527,7,138098,114568
4529,526,8,138105,114567
4531,523,7,138108,114570
4533,526,7,138114,114579
4536,531,7,138127,114578
4538,533,7,138122,114574
4541,530,7,138132,114580
4543,521,7,138139,114589
4546,520,7,138155,114587
4548,520,7,138148,114595
4550,521,7,138173,114594
4553,522,7,138179,114597
4555,527,7,138178,114573
4558,528,7,138178,114600
4560,524,7,138190,114603
4563,521,7,138191,114610
4566,518,7,138196,114606
4569,516,7,138212,114613
4571,516,7,138214,114620
4573,523,7,138227,114615
4576,528,7,138235,114615
4578,531,7,138236,114621
4581,526,7,138241,114630
4583,520,7,138254,114625
4586,519,7,138254,114636
4588,517,7,138262,114637
4590,516,7,138268,114637
4593,522,7,138279,114643
4595,527,7,138276,114637
4598,527,7,138286,114641
4600,524,7,138284,114641
4603,522,7,138279,114638
4605,516,7,138293,114640
4609,514,7,138293,114643
4611,514,7,138274,114640
4613,517,7,138267,114640
4616,526,7,138273,114635
4618,524,7,138256,114618
4621,521,7,138256,114604
4623,518,7,138197,114600
4626,517,7,138157,114600
4628,514,7,138119,114585
4630,514,7,138119,114538
4633,518,7,137999,114513
4635,521,7,137930,114513
4638,524,7,137865,114462
4640,519,7,137781,114426
4643,516,7,137781,114392
4645,516,7,137591,114360
4648,515,7,137482,114360
4651,515,7,137381,114284
4653,517,7,137381,114248
4656,522,7,137155,114200
4658,523,7,137045,114200
4661,523,7,136927,114170
4663,514,7,136817,114095
4666,511,7,136697,114059
4668,502,7,136697,114018
4670,501,7,136598,113990
4673,506,7,136419,113964
4675,506,7,136419,113941
4678,506,7,136289,113919
4680,503,7,136233,113919
4683,499,7,136191,113892
4685,491,8,136128,113860
4688,488,7,136098,113844
4690,480,7,136060,113825
4692,482,7,136034,113825
4696,492,7,136010,113812
4698,491,7,136010,113803
4701,486,7,135990,113797
4703,484,7,135957,113797
4706,483,7,135934,113795
4708,478,7,135934,113776
4710,476,7,135921,113774
4713,478,7,135907,113774
4715,482,7,135911,113763
4718,485,7,135894,113754
4720,480,7,135894,113755
4723,477,7,135889,113759
4725,477,7,135885,113759
4728,476,7,135880,113755
4730,475,7,135880,113751
4732,480,7,135886,113753
4736,484,7,135893,113753
4738,488,7,135901,113755
4741,487,7,135904,113754
4743,482,7,135904,113762
4746,481,7,135920,113757
4748,479,7,135922,113757
4750,477,7,135937,113760
4753,485,7,135937,113762
4755,490,7,135946,113763
4758,491,7,135956,113763
4760,490,7,135976,113768
4763,485,7,135976,113782
4765,484,7,135995,113782
4768,483,7,136009,113781
4770,483,7,136009,113788
4772,489,7,136020,113791
4775,495,7,136041,113791
4777,497,7,136030,113798
4781,494,7,136030,113810
4783,493,7,136047,113815
4786,493,7,136098,113815
4788,492,7,136116,113812
4790,491,7,136126,113822
4793,500,7,136126,113828
4795,506,7,136132,113835
4798,509,7,136163,113835
4800,508,7,136174,113840
4803,505,7,136174,113841
4805,504,7,136182,113842
4808,500,7,136198,113842
4810,502,7,136207,113842
4812,513,7,136207,113848
4815,517,7,136219,113849
4817,520,7,136220,113859
4820,518,7,136229,113860
4823,515,7,136244,113857
4826,514,7,136257,113857
4828,513,7,136259,113865
4830,513,7,136270,113862
4833,517,7,136278,113863
4835,530,7,136293,113871
4838,532,7,136311,113870
4840,530,7,136311,113878
4843,526,7,136319,113880
4845,520,7,136327,113889
4848,519,7,136338,113889
4850,518,7,136356,113894
4852,523,7,136376,113900
4855,530,7,136387,113912
4857,540,7,136405,113909
4860,537,7,136444,113917
4862,534,7,136444,113928
4866,531,7,136452,113928
4868,529,7,136468,113939
4870,531,7,136504,113941
4873,534,7,136500,113948
4875,540,7,136528,113950
4878,544,7,136539,113950
4880,540,7,136557,113955
4883,537,7,136569,113960
4885,534,7,136582,113964
4888,531,7,136595,113975
4890,531,7,136605,113970
4892,535,7,136609,113978
4895,539,7,136613,113974
4897,540,7,136640,113978
4900,538,7,136649,113989
4902,533,7,136650,113990
4905,530,7,136643,113993
4908,529,7,136643,113985
4910,527,7,136634,113982
4913,533,7,136633,113984
4915,538,7,136632,113981
4918,540,7,136635,113984
4920,538,7,136626,113974
4923,532,7,136630,113973
4925,529,7,136612,113959
4928,527,7,136609,113962
4930,526,7,136594,113953
4932,528,7,136574,113952
4935,532,7,136564,113946
4937,535,7,136534,113939
4940,535,7,136520,113931
4942,530,7,136509,113929
4945,526,7,136481,113921
4947,522,7,136461,113906
4950,520,7,136449,113901
4953,523,7,136439,113890
4955,528,7,136417,113884
4958,531,7,136403,113876
4960,525,7,136377,113874
4963,522,7,136363,113869
4965,521,7,136343,113860
4968,519,7,136327,113848
4970,518,7,136300,113841
4972,519,7,136288,113841
4975,523,7,136284,113832
4977,526,7,136266,113822
4980,528,7,136241,113821
4982,523,7,136237,113812
4985,519,7,136222,113810
4987,514,7,136216,113811
4989,514,7,136220,113805
4993,517,7,136202,113802
4995,520,7,136203,113802
4998,521,7,136197,113806
5000,514,7,136184,113801
5003,511,7,136186,113795
5005,510,7,136188,113798
5008,507,7,136187,113794
5010,504,7,136191,113799
5012,505,7,136197,113794
5015,510,7,136185,113798
5017,512,7,136191,113808
5020,507,7,136204,113798
5022,497,7,136201,113806
5025,495,7,136219,113807
5027,494,7,136216,113808
5029,493,7,136227,113804
5032,494,7,136235,113812
5035,499,7,136239,113786
5038,501,7,136245,113814
5040,497,7,136258,113816
5043,494,7,136266,113822
5045,491,7,136283,113822
5048,488,7,136284,113825
5050,486,7,136298,113832
5052,493,7,136303,113831
5055,497,7,136314,113831
5057,501,7,136315,113835
5060,497,7,136330,113838
5062,492,7,136344,113845
5065,490,7,136344,113850
5067,489,7,136363,113849
5069,487,7,136366,113849
5072,492,7,136377,113859
5074,496,7,136388,113850
5078,497,7,136392,113862
5080,494,7,136399,113861
5083,491,7,136411,113858
5085,484,7,136416,113865
5088,481,7,136416,113860
5090,479,7,136428,113862
5092,481,7,136437,113862
5095,489,7,136448,113878
5097,488,7,136442,113871
5100,485,7,136442,113865
5102,481,7,136453,113866
5105,479,7,136457,113866
5107,472,7,136467,113885
5109,469,7,136472,113869
5112,469,7,136469,113874
5114,469,7,136469,113872
5117,468,7,136475,113873
5120,462,7,136482,113869
5123,457,7,136482,113875
5125,457,7,136481,113875
5128,457,7,136485,113875
5130,460,7,136484,113876
5132,463,7,136484,113873
5135,468,7,136486,113872
5137,471,7,136481,113872
5140,473,7,136495,113881
5142,469,7,136487,113882
5145,469,7,136478,113874
5147,471,7,136478,113864
5149,475,7,136480,113866
5152,488,7,136476,113870
5154,492,7,136476,113868
5157,497,7,136482,113879
5159,497,7,136479,113879
5163,496,7,136493,113873
5165,494,7,136486,113870
5168,493,7,136478,113870
5170,491,7,136475,113867
5172,494,7,136483,113867
5175,510,7,136481,113867
5177,513,7,136481,113869
5180,515,7,136490,113871
5182,519,7,136489,113871
5185,525,7,136494,113865
5187,543,7,136494,113867
5189,554,7,136499,113876
5192,563,7,136509,113876
5194,570,7,136516,113878
5197,571,7,136520,113885
5199,555,7,136520,113887
5202,538,7,136533,113880
5204,526,7,136535,113880
5208,511,7,136547,113888
5210,488,7,136547,113896
5212,480,7,136566,113902
5215,477,7,136574,113902
5217,476,7,136579,113901
5220,476,7,136594,113906
5222,473,7,136594,113908
5225,473,7,136607,113907
5227,473,7,136613,113907
5229,472,7,136622,113916
5232,481,7,136622,113925
5234,487,7,136637,113925
5237,489,7,136653,113925
5239,488,7,136660,113925
5242,480,7,136660,113934
5244,479,7,136681,113934
5248,478,7,136704,113951
5250,478,7,136704,113952
5252,481,7,136711,113953
5255,484,7,136735,113953
5257,486,7,136748,113960
5260,486,7,136748,113970
5262,487,7,136722,113966
5265,489,7,136767,113966
5267,490,7,136795,113970
5269,491,7,136796,113978
5272,502,7,136796,113984
5274,510,7,136814,113985
5277,513,7,136838,113985
5279,513,7,136854,113996
5282,511,7,136854,113996
5284,509,7,136855,114008
5287,507,7,136872,114008
5289,508,7,136900,114010
5292,517,7,136900,114014
5295,521,7,136900,114018
5297,521,7,136905,114024
5300,519,7,136917,114029
5302,516,7,136930,114038
5305,515,7,136946,114038
5307,514,7,136968,114034
5309,514,7,136968,114047
5312,518,7,136992,114047
5314,523,7,136992,114050
5317,522,7,136999,114053
5319,517,7,137010,114055
5322,515,7,137017,114055
5324,512,7,137040,114062
5327,511,7,137044,114062
5329,511,7,137050,114063
5331,513,7,137065,114066
5335,515,7,137070,114083
5337,518,7,137088,114078
5340,514,7,137093,114077
5342,510,7,137093,114083
5345,506,7,137105,114084
5347,498,7,137110,114084
5349,498,7,137114,114089
5352,501,7,137114,114092
5354,506,7,137126,114091
5357,508,7,137142,114101
5359,502,7,137151,114098
5362,498,7,137156,114098
5364,495,7,137154,114095
5367,492,7,137151,114108
5369,490,7,137154,114104
5371,493,7,137163,114102
5374,497,7,137169,114107
5377,499,7,137184,114106
5380,496,7,137190,114115
5382,488,7,137196,114114
5385,484,7,137190,114119
5387,482,7,137186,114112
5389,479,7,137190,114112
5392,482,7,137198,114116
5394,486,7,137199,114117
5397,488,7,137208,114119
5399,486,7,137205,114116
5402,481,7,137201,114117
5404,479,7,137201,114111
5407,477,7,137186,114105
5409,475,7,137166,114093
5411,478,7,137143,114088
5414,483,7,137115,114068
5416,487,7,137077,114059
5420,487,7,137027,114042
5422,484,7,136986,114026
5425,481,7,136930,114000
5427,477,7,136858,113978
5429,477,7,136779,113953
5432,480,7,136709,113914
5434,485,7,136622,113884
5437,489,7,136529,113844
5439,484,7,136447,113823
5442,482,7,136341,113784
5444,482,7,136249,113748
5447,481,7,136156,113707
5449,478,7,136060,113684
5451,479,7,135991,113655
5454,481,7,135927,113628
5456,483,7,135872,113603
5459,482,7,135806,113593
5462,477,7,135761,113563
5465,472,7,135721,113553
5467,464,7,135676,113531
5469,462,7,135643,113526
5472,463,7,135607,113499
5474,466,7,135580,113489
5477,467,7,135539,113485
5479,461,7,135515,113477
5482,458,7,135498,113450
5484,454,7,135461,113445
5487,448,7,135437,113433
5489,442,7,135415,113431
5491,442,7,135397,113420
5494,450,7,135379,113401
5496,456,7,135361,113396
5499,458,7,135339,113389
5501,458,7,135322,113374
5505,460,7,135324,113373
5507,468,7,135295,113370
5509,473,7,135292,113361
5512,478,7,135281,113351
5514,489,7,135274,113333
5517,500,7,135269,113351
5519,501,7,135265,113353
5522,501,7,135259,113348
5524,499,7,135263,113352
5527,498,7,135262,113350
5529,493,7,135251,113350
5531,497,7,135254,113337
5534,500,7,135264,113345
5536,501,7,135259,113340
5539,491,7,135257,113343
5541,484,7,135268,113347
5544,483,7,135269,113340
5547,481,7,135281,113342
5549,480,7,135275,113342
5552,486,7,135283,113352
5554,492,7,135296,113344
5557,494,7,135302,113345
5559,492,7,135308,113348
5562,490,7,135302,113342
5564,486,7,135321,113360
5567,484,7,135321,113353
5569,484,7,135332,113353
5571,485,7,135339,113353
5574,490,7,135346,113360
5576,488,7,135353,113355
5579,484,7,135353,113359
5581,481,7,135363,113365
5584,478,7,135371,113365
5586,474,7,135388,113387
5588,473,7,135389,113362
5592,479,7,135396,113369
5594,482,7,135396,113374
5597,486,7,135396,113368
5599,483,7,135399,113367
5602,479,7,135399,113368
5604,478,7,135404,113363
5607,477,7,135402,113363
5609,476,7,135415,113377
5611,476,7,135416,113374
5614,485,7,135424,113373
5616,486,7,135424,113377
5619,484,7,135430,113372
5621,481,7,135434,113372
5624,479,7,135452,113374
5626,476,7,135442,113370
5628,475,7,135442,113373
5632,482,7,135451,113371
5634,483,7,135451,113379
5637,483,7,135479,113391
5639,482,7,135494,113391
5642,481,7,135508,113389
5644,478,7,135514,113391
5647,477,7,135520,113400
5649,473,7,135532,113402
5651,474,7,135552,113402
5654,485,7,135559,113406
5656,485,7,135559,113413
5659,483,7,135571,113421
5661,482,7,135585,113421
5664,482,7,135594,113423
5666,481,7,135594,113429
5668,480,7,135613,113437
5671,481,7,135622,113437
5673,485,7,135635,113433
5677,487,7,135640,113443
5679,481,7,135640,113442
5682,477,7,135641,113442
5684,477,7,135643,113442
5687,475,7,135656,113442
5689,472,7,135656,113440
5691,474,7,135653,113439
5694,478,7,135640,113439
5696,482,7,135643,113442
5699,481,7,135651,113445
5701,475,7,135651,113442
5704,473,7,135642,113440
5706,472,7,135633,113440
5708,468,7,135635,113433
5711,470,7,135633,113430
5713,474,7,135606,113430
5716,478,7,135606,113429
5719,476,7,135595,113430
5722,474,7,135610,113430
5724,473,7,135610,113413
5727,473,7,135609,113409
5729,475,7,135588,113409
5731,484,7,135588,113403
5734,488,7,135573,113403
5736,492,7,135572,113405
5739,491,7,135572,113396
5741,494,7,135560,113392
5744,495,7,135535,113392
5746,492,7,135532,113388
5748,489,7,135514,113394
5751,497,7,135514,113375
5753,504,7,135515,113368
5756,508,7,135487,113368
5758,507,7,135481,113366
5762,502,7,135481,113362
5764,502,7,135468,113362
5767,501,7,135468,113356
5769,500,7,135462,113359
5771,504,7,135452,113359
5774,512,7,135447,113354
5776,517,7,135442,113357
5779,516,7,135442,113352
5781,513,7,135448,113350
5784,511,7,135425,113350
5786,508,7,135420,113353
5788,504,7,135420,113341
5791,502,7,135418,113346
5793,507,7,135421,113346
5796,511,7,135432,113342
5798,512,7,135421,113351
5801,506,7,135421,113346
5804,502,7,135433,113348
5807,499,7,135429,113348
5809,496,7,135437,113340
5811,496,7,135429,113344
5814,500,7,135440,113352
5816,510,7,135442,113353
5819,508,7,135456,113355
5821,505,7,135456,113358
5824,503,7,135462,113359
5826,502,7,135474,113359
5828,504,7,135474,113359
5831,510,7,135486,113373
5833,518,7,135489,113366
5836,523,7,135505,113372
5838,525,7,135507,113378
5841,520,7,135517,113373
5843,517,7,135536,113386
5847,514,7,135536,113387
5849,510,7,135551,113389
5851,515,7,135562,113387
5854,521,7,135567,113408
5856,525,7,135587,113399
5859,525,7,135591,113399
5861,518,7,135605,113403
5864,516,7,135615,113411
5866,513,7,135624,113415
5868,510,7,135631,113423
5871,511,7,135642,113424
5873,517,7,135655,113429
5876,522,7,135672,113433
5878,519,7,135685,113431
5881,515,7,135691,113445
5883,513,7,135706,113439
5886,511,7,135724,113448
5889,509,7,135741,113450
5891,512,7,135746,113453
5894,518,7,135761,113458
5896,521,7,135775,113468
5899,520,7,135771,113471
5901,514,7,135777,113475
5904,510,7,135790,113476
5906,508,7,135811,113478
5908,505,7,135818,113479
5911,506,7,135835,113490
5913,513,7,135835,113494
5916,516,7,135846,113495
5918,516,7,135853,113500
5921,512,7,135858,113505
5923,507,7,135872,113503
5926,504,7,135876,113509
5928,501,7,135884,113518
5931,503,7,135895,113520
5934,508,7,135904,113519
5936,512,7,135922,113528
5939,515,7,135919,113533
5941,511,7,135922,113530
5944,507,7,135934,113527
5946,499,7,135940,113533
5948,494,7,135950,113548
5951,494,7,135950,113540
5953,498,7,135968,113544
5956,508,7,135964,113542
5958,505,7,135963,113557
5961,505,7,135980,113552
5963,509,7,135976,113555
5966,510,7,135994,113554
5968,509,7,135997,113565
5970,513,7,135999,113562
5974,521,7,136004,113560
5976,526,7,136002,113566
5979,527,7,136004,113570
5981,520,7,136011,113570
5984,520,7,136021,113569
5986,521,7,136019,113573
5988,520,7,136032,113578
5991,526,7,136025,113578
5993,528,7,136034,113580
5996,530,7,136032,113578
5998,531,7,136036,113581
6001,526,7,136032,113562
6003,522,7,136051,113574
6006,520,7,136039,113580
6008,515,7,136044,113579
6010,521,7,136030,113574
6013,525,7,136033,113583
6016,529,7,136041,113582
6019,527,7,136043,113578
6021,524,7,136048,113580
6024,529,7,136040,113587
6026,534,7,136052,113586
6028,543,7,136046,113585
6031,568,7,136043,113584
6033,583,7,136041,113573
6036,590,7,136041,113580
6038,589,7,136042,113575
6041,583,7,136042,113586
6043,561,7,136047,113577
6046,547,7,136051,113581
6048,535,7,136051,113587
6050,524,7,136058,113587
6053,512,7,136063,113590
6055,503,7,136062,113582
6059,496,7,136062,113588
6061,491,7,136064,113593
6064,490,7,136071,113593
6066,491,7,136084,113590
6068,492,7,136079,113589
6071,502,7,136087,113598
6073,508,7,136087,113597
6076,514,7,136101,113604
6078,512,7,136099,113613
6081,507,7,136099,113608
6083,505,7,136112,113613
6086,504,7,136126,113613
6088,502,7,136138,113627
6090,502,7,136144,113625
6093,512,7,136158,113625
6095,515,7,136158,113628
6098,514,7,136166,113635
6100,511,7,136176,113635
6104,508,8,136197,113644
6106,504,7,136188,113646
6108,502,7,136188,113643
6111,506,7,136206,113647
6113,512,7,136223,113647
6116,518,7,136235,113658
6118,513,7,136235,113654
6121,508,7,136239,113664
6123,508,7,136252,113664
6126,510,7,136281,113677
6128,508,7,136281,113679
6130,510,7,136281,113682
6133,516,7,136306,113690
6135,520,7,136314,113690
6138,519,7,136327,113705
6140,512,7,136327,113707
6144,511,7,136334,113711
6146,511,7,136358,113711
6148,509,7,136376,113715
6151,514,7,136381,113730
6153,516,7,136381,113732
6156,519,7,136402,113748
6158,520,7,136412,113748
6161,519,7,136428,113742
6163,516,7,136428,113753
6166,513,7,136447,113760
6168,511,7,136466,113760
6170,512,7,136489,113776
6173,521,7,136506,113785
6175,523,7,136493,113785
6178,521,7,136511,113785
6180,515,7,136511,113795
6183,515,7,136538,113794
6185,514,7,136552,113802
6188,513,7,136552,113802
6191,517,7,136569,113802
6193,524,8,136576,113804
6196,529,7,136588,113808
6198,527,7,136588,113814
6201,525,7,136608,113814
6203,526,7,136608,113817
6206,523,7,136628,113827
6208,523,7,136626,113827
6210,526,7,136645,113830
6213,536,8,136656,113829
6215,539,8,136649,113829
6218,536,7,136649,113836
6220,532,7,136665,113839
6223,530,7,136630,113839
6225,529,7,136649,113844
6227,526,8,136675,113844
6231,530,7,136675,113844
6233,536,7,136670,113841
6236,539,7,136654,113841
6238,537,7,136636,113829
6241,531,7,136636,113810
6243,528,7,136609,113798
6246,526,7,136576,113798
6248,525,7,136508,113791
6250,532,7,136508,113743
6253,538,7,136368,113743
6255,542,7,136290,113722
6258,538,7,136290,113652
6260,535,7,136208,113617
6263,532,7,136024,113583
6265,527,8,136024,113537
6267,525,7,135916,113537
6270,528,7,135743,113512
6273,535,7,135654,113485
6276,543,8,135654,113425
6278,538,7,135606,113401
6281,535,8,135468,113401
6283,531,7,135404,113376
6286,529,7,135404,113334
6288,523,7,135357,113319
6290,525,8,135318,113319
6293,530,7,135270,113311
6295,533,7,135231,113287
6298,533,7,135195,113273
6300,526,7,135156,113262
6303,523,7,135105,113248
6305,521,7,135067,113237
6307,518,8,135067,113204
6310,515,7,135046,113206
6312,518,7,135016,113206
6316,520,7,134988,113190
6318,519,7,134973,113182
6321,515,7,134952,113164
6323,506,7,134940,113156
6326,503,8,134919,113139
6328,499,7,134883,113144
6330,499,7,134873,113133
6333,502,7,134870,113140
6335,512,7,134853,113131
6338,508,7,134838,113121
6340,504,7,134831,113118
6343,498,7,134836,113107
6345,491,7,134828,113113
6347,488,7,134824,113105
6350,488,7,134816,113114
6352,491,7,134805,113097
6355,493,7,134816,113095
6358,490,7,134803,113103
6361,486,7,134808,113096
6363,484,7,134814,113087
6366,483,7,134818,113105
6368,482,7,134829,113095
6370,485,7,134826,113095
6373,492,7,134822,113100
6375,497,7,134835,113099
6378,502,7,134833,113104
6380,500,7,134840,113099
6383,497,7,134844,113103
6385,494,7,134850,113104
6387,493,7,134862,113105
6390,496,7,134868,113108
6392,500,7,134878,113108
6395,506,7,134878,113112
6397,503,7,134896,113110
6401,500,7,134899,113119
6403,499,7,134896,113116
6406,497,7,134920,113122
6408,493,7,134914,113122
6410,494,7,134925,113126
6413,497,7,134931,113123
6415,501,7,134944,113131
6418,504,7,134938,113131
6420,499,7,134951,113127
6423,495,7,134960,113135
6425,489,7,134959,113136
6427,488,7,134963,113142
6430,491,7,134962,113133
6432,496,7,134975,113140
6435,502,7,134969,113135
6437,497,7,134968,113137
6440,495,7,134973,113132
6443,494,7,134970,113130
6446,493,7,134966,113132
6448,489,7,134966,113141
6450,489,7,134963,113134
6453,495,7,134971,113133
6455,499,7,134974,113136
6458,498,7,134968,113134
6460,491,7,134980,113135
6463,490,7,134985,113134
6465,490,7,134984,113141
6467,488,7,134981,113140
6470,492,7,134982,113142
6472,494,7,134993,113146
6475,496,7,134999,113146
6477,499,7,135009,113152
6480,495,7,135010,113152
6482,491,7,135031,113152
6486,489,7,135036,113157
6488,485,7,135040,113157
6490,490,7,135052,113167
6493,496,7,135056,113167
6495,500,7,135064,113172
6498,496,7,135083,113174
6500,490,7,135095,113175
6503,490,7,135094,113181
6505,489,7,135108,113185
6507,486,7,135108,113186
6510,491,7,135120,113191
6512,497,7,135125,113183
6515,499,7,135130,113185
6517,497,7,135140,113193
6520,494,7,135141,113194
6522,489,7,135155,113196
6525,488,7,135154,113201
6528,486,7,135164,113188
6530,488,7,135157,113194
6533,498,7,135166,113203
6535,499,7,135171,113195
6538,496,7,135171,113195
6540,493,7,135164,113199
6543,493,7,135160,113199
6545,490,7,135180,113199
6547,488,7,135166,113195
6550,492,7,135169,113192
6552,496,7,135169,113196
6555,501,7,135163,113193
6557,498,7,135164,113192
6560,493,7,135164,113198
6562,490,7,135155,113195
6565,488,7,135160,113195
6567,480,7,135163,113191
6569,480,7,135151,113190
6573,490,7,135151,113181
6575,496,7,135151,113177
6578,498,7,135136,113175
6580,496,7,135129,113175
6583,494,7,135134,113182
6585,490,7,135128,113174
6587,487,7,135128,113176
6590,491,7,135117,113168
6592,497,7,135111,113168
6595,505,7,135104,113172
6597,502,7,135104,113165
6600,498,7,135101,113161
6602,497,7,135097,113161
6605,498,7,135105,113167
6607,502,7,135098,113162
6609,505,7,135098,113154
6612,515,7,135085,113163
6615,520,7,135092,113163
6618,522,7,135090,113162
6620,516,7,135090,113159
6623,514,7,135094,113164
6625,513,7,135090,113164
6627,510,7,135113,113159
6630,514,7,135107,113165
6632,517,7,135107,113166
6635,519,7,135113,113173
6637,521,7,135119,113173
6640,520,7,135125,113168
6642,517,7,135125,113170
6645,514,7,135121,113176
6647,512,7,135147,113176
6649,512,7,135149,113181
6652,519,7,135157,113176
6654,521,7,135153,113176
6658,520,7,135164,113188
6660,515,7,135164,113191
6663,513,7,135188,113196
6665,514,7,135206,113204
6667,514,7,135206,113202
6670,518,7,135229,113202
6672,524,7,135244,113206
6675,529,7,135265,113220
6677,525,7,135265,113224
6680,521,7,135285,113224
6682,519,7,135285,113234
6685,515,7,135299,113238
6687,514,7,135315,113238
6689,516,7,135334,113238
6692,525,7,135356,113254
6694,527,7,135371,113254
6697,524,7,135371,113267
6700,518,7,135380,113274
6703,516,7,135373,113274
6705,515,7,135425,113279
6707,511,7,135438,113282
6710,514,7,135438,113295
6712,520,7,135420,113294
6715,524,7,135483,113294
6717,523,7,135492,113303
6720,518,7,135492,113314
6722,514,7,135504,113315
6725,512,7,135521,113315
6727,512,7,135551,113324
6729,519,7,135551,113332
6732,525,7,135573,113332
6734,529,8,135581,113343
6737,527,7,135581,113342
6739,523,7,135591,113351
6743,521,7,135630,113351
6745,519,7,135636,113360
6747,515,7,135636,113359
6750,516,7,135641,113367
6752,521,7,135649,113367
6755,524,7,135666,113376
6757,526,7,135675,113373
6760,522,7,135675,113376
6762,520,7,135683,113376
6765,518,8,135699,113380
6767,514,7,135721,113394
6769,514,7,135721,113397
6772,521,7,135726,113397
6774,523,7,135736,113396
6777,520,7,135736,113400
6779,516,7,135750,113400
6782,516,7,135758,113403
6785,515,7,135765,113413
6787,511,7,135773,113417
6790,509,7,135785,113417
6792,521,7,135797,113417
6795,523,7,135815,113425
6797,523,7,135815,113429
6800,519,7,135817,113429
6802,512,7,135821,113434
6805,511,7,135852,113433
6807,509,7,135840,113445
6809,510,7,135851,113434
6812,514,7,135860,113438
6814,522,7,135864,113440
6817,520,7,135871,113448
6819,516,7,135876,113451
6822,512,7,135887,113452
6824,514,7,135890,113450
6827,510,7,135890,113454
6830,515,7,135902,113458
6832,521,7,135909,113451
6835,524,7,135896,113458
6837,525,7,135911,113462
6840,520,7,135919,113466
6842,516,7,135926,113464
6845,515,7,135929,113463
6847,513,7,135933,113466
6849,512,7,135935,113476
6852,517,7,135933,113477
6854,523,7,135949,113478
6857,522,7,135948,113484
6859,518,7,135951,113476
6862,517,7,135963,113493
6864,517,7,135972,113481
6866,514,7,135976,113490
6870,520,7,135975,113483
6872,526,7,135973,113488
6875,530,7,135984,113491
6877,530,7,135993,113491
6880,526,7,135996,113487
6882,520,7,136011,113498
6885,519,7,136004,113499
6887,519,7,136001,113494
6889,519,7,136012,113497
6892,528,7,136010,113501
6894,530,7,136015,113506
6897,529,7,136016,113505
6899,526,7,136034,113495
6902,526,7,136018,113504
6904,525,7,136031,113498
6906,521,7,136038,113500
6909,521,7,136043,113509
6912,527,7,136033,113500
6915,531,7,136040,113501
6917,527,7,136037,113498
6920,525,7,136049,113510
6922,523,7,136050,113508
6925,522,7,136061,113508
6927,520,7,136047,113508
6929,520,7,136056,113513
6932,524,7,136067,113507
6934,530,7,136074,113500
6937,536,7,136076,113511
6939,532,7,136080,113519
6942,529,7,136081,113519
6944,527,7,136086,113518
6946,530,7,136096,113525
6949,536,7,136093,113527
6951,546,7,136093,113526
6955,571,7,136102,113529
6957,577,7,136114,113528
6960,580,7,136113,113523
6962,587,7,136119,113533
6965,586,8,136135,113539
6967,579,8,136141,113538
6969,569,7,136134,113541
6972,562,7,136144,113540
6974,554,7,136143,113544
6977,541,7,136157,113546
6979,517,7,136156,113546
6982,510,7,136160,113546
6984,505,7,136172,113554
6986,502,7,136182,113555
6989,503,7,136180,113556
6991,515,7,136184,113557
6994,529,7,136189,113551
6996,530,7,136188,113553
7000,528,7,136190,113556
7002,525,7,136191,113557
7005,524,7,136205,113553
7007,519,7,136218,113561
7009,523,8,136220,113564
7012,529,8,136236,113563
7014,535,7,136235,113569
7017,535,7,136246,113571
7019,530,7,136244,113571
7022,528,7,136244,113567
7024,528,7,136252,113573
7026,526,7,136261,113573
7029,530,7,136293,113585
7031,536,7,136278,113577
7034,539,7,136301,113582
7036,539,7,136304,113588
7040,536,7,136319,113583
7042,531,7,136326,113587
7045,529,7,136326,113597
7047,527,7,136343,113591
7049,528,7,136347,113591
7052,538,8,136362,113603
7054,540,7,136374,113608
7057,538,7,136374,113613
7059,536,7,136406,113623
7062,534,7,136399,113623
7064,531,7,136414,113624
7066,528,7,136414,113635
7069,530,7,136437,113633
7071,534,7,136437,113633
7074,539,7,136458,113642
7076,538,7,136463,113639
7079,535,7,136463,113645
7081,534,7,136481,113648
7085,533,7,136490,113648
7087,530,7,136498,113663
7089,530,7,136498,113662
7092,535,7,136513,113664
7094,540,7,136520,113664
7097,543,7,136535,113668
7099,538,7,136531,113677
7102,536,7,136541,113679
7104,532,7,136541,113678
7106,531,7,136554,113685
7109,536,7,136562,113691
7111,538,7,136562,113690
7114,543,7,136576,113695
7116,545,7,136581,113695
7119,543,7,136596,113699
7121,538,7,136596,113700
7124,536,7,136595,113698
7127,533,7,136599,113698
7129,532,7,136612,113694
7132,541,7,136610,113708
7134,543,7,136619,113708
7137,544,8,136620,113705
7139,539,7,136620,113717
7142,536,8,136632,113711
7144,537,7,136640,113723
7146,535,7,136640,113713
7149,539,7,136646,113713
7151,544,8,136648,113721
7154,548,7,136657,113721
7156,546,7,136657,113721
7159,543,8,136639,113721
7161,541,7,136639,113713
7164,536,7,136634,113710
7166,535,8,136599,113710
7169,537,8,136587,113705
7172,545,8,136547,113678
7174,548,8,136507,113678
7177,546,8,136507,113632
7179,542,8,136455,113609
7182,540,7,136273,113609
7184,539,8,136193,113581
7186,536,8,136130,113560
7189,541,7,136130,113478
7191,549,7,136031,113444
7194,553,8,135812,113444
7196,554,8,135706,113400
7199,548,8,135706,113327
7201,547,7,135481,113327
7204,545,7,135481,113263
7206,542,7,135397,113234
7208,544,7,135288,113234
7212,550,8,135288,113189
7214,554,8,135233,113176
7217,554,8,135131,113176
7219,551,8,135089,113159
7222,548,8,135089,113124
7224,540,8,135053,113108
7226,538,8,135015,113108
7229,539,8,134950,113092
7231,543,8,134910,113081
7234,550,8,134910,113055
7236,546,8,134883,113050
7239,542,8,134829,113050
7241,537,8,134797,113030
7244,533,8,134797,113015
7246,528,7,134786,112996
7248,523,7,134766,112996
7251,529,7,134724,112992
7254,533,8,134707,112985
7257,530,8,134707,112975
7259,522,7,134696,112975
7262,519,8,134688,112975
7264,517,7,134671,112971
7266,514,8,134675,112956
7269,512,7,134653,112955
7271,522,8,134652,112956
7274,526,7,134648,112948
7276,527,7,134648,112951
7279,524,7,134655,112951
7281,516,7,134643,112946
7284,515,7,134664,112952
7286,512,7,134633,112950
7288,511,8,134645,112947
7291,515,7,134652,112949
7293,523,7,134658,112948
7297,523,7,134665,112946
7299,519,7,134658,112945
7302,514,7,134661,112950
7304,513,7,134665,112954
7306,510,7,134667,112951
7309,511,7,134679,112949
7311,520,7,134682,112956
7314,524,7,134684,112964
7316,526,7,134703,112960
7319,522,7,134714,112972
7321,518,7,134723,112969
7324,517,8,134732,112963
7326,514,7,134729,112969
7328,514,7,134738,112973
7331,520,7,134734,112977
7333,525,7,134747,112978
7336,527,7,134752,112980
7339,522,7,134752,112981
7342,520,7,134762,112986
7344,520,7,134772,112987
7346,517,7,134791,112987
7349,520,7,134781,112988
7351,523,7,134790,112985
7354,527,7,134786,112979
7356,529,7,134791,112993
7359,526,7,134800,112988
7361,523,7,134794,112992
7364,521,7,134795,112991
7366,517,7,134793,112983
7368,518,7,134795,112994
7371,524,7,134802,112994
7373,529,7,134807,112996
7376,531,7,134812,112990
7378,524,7,134809,112990
7382,523,7,134809,112989
7384,523,7,134815,112990
7386,520,7,134825,112994
7389,522,7,134818,112991
7391,525,7,134818,112997
7394,528,7,134831,112994
7396,532,7,134837,112996
7399,528,7,134842,113004
7401,524,7,134847,113004
7404,522,7,134843,113006
7406,518,7,134851,113009
7408,521,7,134871,113013
7411,528,7,134877,113016
7413,531,7,134890,113018
7416,531,7,134891,113026
7418,525,7,134912,113037
7421,525,7,134916,113032
7424,525,7,134920,113030
7426,523,7,134927,113022
7429,525,7,134931,113036
7431,530,7,134950,113041
7434,532,7,134954,113043
7436,532,7,134971,113047
7439,528,7,134967,113053
7441,523,7,134974,113051
7444,523,7,134979,113048
7446,522,7,134980,113052
7448,522,7,134977,113056
7451,531,7,134991,113051
7453,532,7,134996,113055
7456,531,7,134996,113052
7458,529,7,134998,113059
7461,530,7,135006,113056
7463,529,7,134998,113055
7465,527,7,134999,113056
7469,526,7,135003,113053
7471,532,7,134997,113053
7474,538,7,134996,113047
7476,536,7,134996,113048
7479,532,7,134996,113051
7481,532,7,134994,113042
7484,532,7,134988,113039
7486,531,7,134982,113041
7488,533,8,134985,113041
7491,536,7,134984,113041
7493,540,7,134980,113040
7496,540,8,134973,113040
7498,536,7,134968,113037
7501,533,7,134968,113026
7503,533,7,134957,113026
7505,531,7,134955,113026
7508,533,7,134958,113032
7511,539,7,134940,113025
7514,541,8,134932,113015
7516,541,7,134925,113020
7519,538,7,134922,113015
7521,532,8,134922,113009
7524,531,7,134922,113014
7526,529,7,134911,113013
7528,529,7,134904,113013
7531,537,7,134911,113009
7533,538,7,134897,113012
7536,537,7,134897,113009
7538,534,7,134900,113013
7541,532,8,134905,113013
7543,528,7,134904,113025
7545,525,7,134904,113011
7548,526,7,134898,113016
7550,530,7,134894,113016
7554,534,7,134902,113016
7556,534,7,134903,113009
7559,530,7,134903,113012
7561,528,7,134907,113010
7564,527,7,134910,113010
7566,522,7,134906,113017
7568,521,7,134906,113020
7571,526,7,134920,113020
7573,530,7,134921,113020
7576,533,7,134936,113019
7578,529,8,134936,113022
7581,526,8,134946,113033
7583,521,7,134946,113032
7585,518,7,134952,113042
7588,523,7,134961,113038
7590,525,7,134961,113042
7593,530,7,134976,113046
7596,531,7,134972,113046
7599,529,7,134990,113050
7601,523,7,134990,113050
7604,521,7,135001,113066
7606,518,7,135010,113066
7608,518,7,135021,113059
7611,524,7,135042,113064
7613,526,8,135043,113064
7616,526,7,135055,113075
7618,521,7,135055,113081
7621,518,7,135075,113083
7623,519,7,135085,113093
7625,517,7,135085,113093
7628,520,7,135108,113093
7630,525,8,135128,113096
7633,529,7,135137,113099
7635,527,7,135137,113112
7639,524,7,135154,113112
7641,521,7,135154,113112
7644,518,7,135169,113118
7646,516,7,135186,113118
7648,517,7,135201,113121
7651,524,7,135212,113135
7653,526,8,135222,113135
7656,527,7,135222,113142
7658,522,7,135241,113147
7661,520,7,135227,113147
7663,519,7,135275,113145
7665,516,7,135278,113153
7668,516,8,135278,113159
7670,522,7,135251,113161
7673,525,7,135301,113161
7675,526,7,135323,113166
7678,520,7,135323,113171
7681,519,7,135310,113171
7684,516,8,135310,113172
7686,514,8,135317,113179
7688,515,7,135358,113179
7691,522,7,135358,113185
7693,526,7,135371,113191
7696,526,8,135387,113191
7698,523,7,135386,113189
7701,521,7,135386,113193
7703,515,8,135395,113199
7705,513,7,135409,113199
7708,515,7,135426,113204
7710,520,7,135430,113208
7713,531,7,135430,113209
7715,530,7,135430,113212
7718,526,7,135450,113212
7720,523,7,135450,113215
7724,520,7,135450,113219
7726,515,7,135458,113220
7728,516,7,135464,113220
7731,521,7,135469,113226
7733,527,7,135476,113238
7736,529,8,135486,113224
7738,526,7,135504,113234
7741,525,7,135516,113246
7743,524,7,135521,113247
7745,523,7,135521,113238
7748,520,7,135529,113244
7750,525,7,135529,113244
7753,529,7,135539,113250
7755,532,7,135537,113242
7758,530,7,135550,113248
7760,525,7,135570,113252
7763,524,7,135568,113253
7766,521,7,135560,113254
7768,519,7,135563,113247
7771,522,7,135573,113252
7773,535,7,135572,113264
7776,534,7,135584,113261
7778,530,7,135590,113265
7781,526,7,135601,113264
7783,523,7,135611,113265
7785,520,7,135612,113266
7788,519,7,135611,113280
7790,523,7,135619,113271
7793,527,7,135621,113274
7795,528,7,135629,113277
7798,525,7,135630,113277
7800,522,7,135641,113278
7803,519,7,135638,113280
7805,515,7,135643,113282
7808,516,7,135642,113288
7811,519,7,135656,113293
7813,523,7,135668,113294
7816,527,7,135675,113295
7818,525,7,135680,113296
7821,521,7,135685,113299
7823,516,7,135686,113301
7825,514,7,135685,113298
7828,515,7,135687,113299
7830,518,7,135695,113307
7833,523,7,135694,113303
7835,526,7,135701,113307
7838,523,7,135705,113311
7840,517,7,135712,113315
7843,517,7,135718,113316
7845,516,7,135714,113315
7847,516,7,135724,113310
7851,526,7,135743,113324
7853,527,7,135735,113326
7856,527,7,135740,113326
7858,525,7,135753,113330
7861,523,7,135744,113335
7863,522,7,135758,113333
7865,519,7,135762,113340
7868,517,7,135780,113331
7870,522,7,135780,113340
7873,527,7,135785,113341
7875,526,7,135786,113342
7878,523,7,135796,113351
7880,522,7,135796,113353
7883,521,7,135815,113346
7885,518,7,135811,113353
7887,517,7,135811,113354
7890,520,7,135827,113362
7892,526,7,135838,113357
7896,533,7,135832,113360
7898,529,7,135847,113375
7901,524,7,135855,113368
7903,519,7,135862,113374
7905,518,7,135869,113377
7908,519,7,135874,113385
7910,523,7,135883,113380
7913,530,7,135894,113395
7915,526,7,135897,113394
7918,522,7,135909,113394
7920,522,7,135912,113385
7923,523,8,135931,113399
7925,520,7,135936,113407
7927,519,7,135936,113405
7930,523,7,135940,113410
7932,527,7,135952,113415
7936,527,7,135952,113411
7938,519,7,135970,113421
7941,517,7,135972,113421
7943,519,7,135983,113426
7945,515,7,135991,113424
7948,514,7,135998,113425
7950,522,7,135996,113426
7953,530,7,136009,113432
7955,530,7,136016,113427
7958,525,7,136013,113428
7960,521,7,136021,113436
7963,520,7,136035,113440
7965,522,7,136042,113443
7967,530,7,136042,113441
7970,542,7,136056,113449
7972,561,7,136065,113448
7975,583,7,136072,113451
7977,587,7,136075,113452
7981,589,7,136075,113453
7983,590,7,136083,113456
7985,585,7,136088,113456
7988,568,7,136114,113470
7990,560,7,136097,113459
7993,550,7,136109,113466
7995,535,7,136110,113469
7998,521,7,136123,113471
8000,495,7,136127,113469
8003,490,7,136127,113478
8005,487,7,136137,113481
8007,489,7,136140,113481
8010,503,7,136161,113489
8012,507,7,136154,113483
8015,508,7,136154,113484
8017,507,7,136168,113486
8020,508,7,136175,113486
8023,507,7,136190,113512
8025,504,7,136190,113502
8028,505,7,136194,113501
8030,508,7,136201,113501
8033,513,7,136222,113508
8035,513,7,136219,113501
8038,508,7,136219,113513
8040,507,7,136229,113512
8043,507,7,136235,113512
8045,503,7,136247,113523
8047,502,7,136247,113526
8050,506,7,136263,113530
8052,512,7,136275,113530
8055,516,7,136289,113539
8057,512,7,136292,113535
8060,509,7,136306,113550
8062,504,7,136306,113552
8065,502,7,136320,113555
8068,506,7,136330,113552
8070,507,7,136330,113554
8073,512,7,136351,113567
8075,515,7,136367,113567
8078,514,7,136375,113570
8080,508,7,136375,113576
8083,506,7,136385,113579
8085,503,7,136406,113579
8087,502,7,136423,113586
8090,508,7,136427,113588
8092,510,7,136436,113588
8095,512,7,136435,113600
8097,507,7,136435,113604
8100,504,7,136461,113607
8102,506,7,136474,113607
8104,504,7,136486,113609
8108,504,7,136486,113623
8110,508,7,136499,113630
8113,512,7,136515,113630
8115,515,7,136534,113630
8118,513,7,136543,113641
8120,508,7,136543,113643
8123,507,7,136528,113645
8125,505,7,136564,113645
8127,504,7,136581,113648
8130,513,7,136581,113648
8132,517,7,136582,113649
8135,516,7,136596,113649
8137,514,7,136613,113657
8140,507,7,136613,113664
8142,507,7,136620,113664
8144,505,7,136636,113669
8147,507,7,136636,113673
8150,513,7,136645,113673
8153,517,7,136651,113673
8155,518,7,136657,113685
8158,512,7,136657,113687
8160,510,7,136635,113684
8163,510,7,136672,113684
8165,509,7,136683,113692
8167,508,7,136673,113686
8170,517,7,136673,113696
8172,521,7,136683,113691
8175,522,7,136673,113691
8177,519,7,136662,113689
8180,516,7,136662,113684
8182,512,7,136646,113670
8184,510,7,136634,113670
8187,511,7,136564,113654
8189,516,7,136520,113642
8193,529,7,136520,113604
8195,529,7,136466,113576
8198,527,7,136313,113576
8200,524,7,136216,113540
8203,523,7,136216,113466
8205,517,7,136119,113427
8207,518,7,135998,113427
8210,523,7,135888,113393
8212,528,7,135770,113350
8215,531,7,135648,113300
8217,529,7,135538,113256
8220,527,7,135327,113224
8222,525,7,135245,113193
8224,523,7,135245,113132
8227,520,7,135175,113116
8229,524,7,135117,113116
8232,529,7,135058,113091
8235,533,7,135014,113072
8238,530,7,134974,113057
8240,523,7,134949,113045
8243,521,7,134910,113027
8245,517,7,134863,113019
8247,514,7,134828,112991
8250,515,7,134806,112980
8252,525,7,134769,112968
8255,523,7,134746,112963
8257,519,7,134727,112952
8260,513,7,134700,112941
8262,506,7,134690,112930
8264,502,7,134671,112921
8267,500,7,134644,112920
8269,502,7,134625,112911
8272,504,7,134619,112903
8274,504,7,134608,112898
8278,499,7,134590,112880
8280,495,7,134586,112882
8283,493,7,134572,112879
8285,487,7,134569,112876
8287,486,7,134557,112879
8290,489,7,134547,112871
8292,493,7,134551,112865
8295,498,7,134558,112864
8297,496,7,134561,112869
8300,491,7,134553,112864
8302,487,7,134556,112864
8304,484,7,134563,112873
8307,484,7,134565,112866
8309,486,7,134569,112877
8312,492,7,134576,112874
8314,495,7,134578,112867
8317,493,7,134585,112870
8320,487,7,134592,112880
8323,486,7,134613,112889
8325,485,7,134619,112890
8327,485,7,134629,112884
8330,494,7,134634,112893
8332,495,7,134647,112895
8335,496,7,134663,112896
8337,494,7,134682,112903
8340,493,7,134672,112909
8342,491,7,134699,112914
8344,488,7,134710,112913
8347,487,7,134714,112914
8349,491,7,134730,112919
8352,496,7,134735,112930
8354,494,7,134745,112930
8357,492,7,134757,112935
8359,491,7,134759,112934
8363,490,7,134773,112928
8365,487,7,134768,112932
8367,486,7,134773,112948
8370,489,7,134787,112941
8372,497,7,134791,112947
8375,500,7,134797,112937
8377,496,7,134807,112951
8380,491,7,134792,112949
8382,487,7,134796,112945
8384,486,7,134806,112944
8387,487,7,134793,112943
8389,490,7,134809,112951
8392,498,7,134809,112946
8394,494,7,134805,112952
8397,492,7,134813,112947
8399,490,7,134813,112954
8402,489,7,134824,112952
8404,487,7,134819,112958
8407,486,7,134814,112959
8410,489,7,134824,112953
8412,494,7,134823,112958
8415,495,7,134823,112958
8417,488,7,134833,112956
8420,486,7,134828,112952
8422,488,7,134842,112958
8424,485,7,134853,112967
8427,484,7,134861,112962
8429,491,7,134861,112964
8432,499,7,134870,112974
8434,499,7,134879,112968
8437,495,7,134883,112967
8439,491,7,134875,112964
8442,490,7,134885,112969
8444,485,7,134889,112971
8446,487,7,134902,112971
8450,491,7,134912,112975
8452,497,7,134914,112977
8455,498,7,134903,112978
8457,493,7,134914,112976
8460,490,7,134914,112982
8462,491,7,134922,112980
8464,490,7,134934,112980
8467,490,7,134941,112978
8469,496,7,134929,112981
8472,498,7,134935,112981
8474,500,7,134936,112984
8477,498,7,134928,112981
8479,491,7,134937,112976
8482,490,7,134937,112970
8484,488,7,134924,112976
8486,488,7,134925,112976
8489,496,7,134936,112976
8492,498,7,134924,112980
8495,497,7,134924,112979
8497,495,7,134930,112980
8500,495,7,134928,112980
8502,492,7,134925,112981
8504,490,7,134925,112977
8507,490,7,134919,112979
8509,493,7,134921,112979
8512,498,7,134927,112974
8514,498,7,134918,112969
8517,495,7,134918,112970
8519,493,7,134907,112969
8522,493,7,134899,112969
8524,489,7,134887,112962
8526,488,7,134887,112961
8529,492,7,134884,112963
8531,497,7,134878,112963
8535,501,7,134879,112958
8537,497,7,134870,112954
8540,495,7,134860,112957
8542,490,7,134860,112951
8544,488,7,134865,112946
8547,492,7,134852,112946
8549,493,7,134852,112949
8552,499,7,134845,112942
8554,502,7,134842,112942
8557,500,7,134847,112941
8559,493,7,134847,112943
8562,491,7,134840,112939
8564,488,7,134838,112939
8566,488,7,134841,112940
8569,493,7,134838,112939
8571,496,7,134844,112939
8574,498,7,134843,112942
8577,493,7,134843,112949
8580,491,7,134853,112947
8582,492,7,134862,112947
8584,490,7,134861,112953
8587,491,7,134861,112952
8589,494,7,134870,112954
8592,498,7,134876,112954
8594,501,7,134893,112960
8597,499,7,134897,112957
8599,493,7,134897,112954
8602,491,7,134900,112962
8604,489,7,134921,112962
8606,487,7,134930,112964
8609,494,7,134930,112971
8611,499,7,134941,112974
8614,499,7,134958,112974
8616,496,7,134977,112981
8620,489,7,134977,112987
8622,489,7,134992,112987
8624,487,7,135012,112996
8627,488,7,135012,113004
8629,492,7,135023,113013
8632,498,7,135050,113013
8634,502,7,135065,113017
8637,499,7,135065,113028
8639,496,7,135049,113036
8642,496,7,135105,113036
8644,494,7,135127,113039
8646,492,7,135137,113047
8649,499,7,135137,113048
8651,503,7,135149,113055
8654,504,7,135175,113055
8656,501,7,135196,113060
8659,498,7,135196,113074
8662,496,7,135202,113077
8664,490,7,135227,113077
8667,492,7,135250,113084
8669,504,7,135250,113093
8672,505,7,135263,113098
8674,504,7,135276,113111
8677,502,8,135287,113111
8679,499,7,135287,113114
8682,500,7,135311,113114
8684,499,7,135326,113121
8686,499,7,135326,113127
8689,499,7,135338,113128
8691,505,7,135345,113128
8694,507,7,135374,113129
8696,506,7,135373,113148
8699,500,7,135373,113147
8701,496,7,135388,113147
8704,495,7,135399,113145
8707,495,7,135401,113148
8709,497,7,135414,113147
8712,502,7,135432,113159
8714,507,7,135440,113163
8717,504,7,135447,113166
8719,503,7,135455,113169
8722,502,7,135455,113172
8724,496,7,135469,113172
8726,497,7,135471,113176
8729,502,7,135472,113182
8731,506,7,135479,113180
8734,507,7,135499,113182
8736,502,7,135519,113194
8739,499,7,135508,113192
8741,497,7,135518,113195
8743,494,7,135524,113192
8747,492,7,135520,113196
8749,504,7,135529,113198
8752,508,7,135537,113206
8754,509,7,135556,113205
8757,506,7,135556,113206
8759,500,7,135559,113207
8762,499,7,135559,113212
8764,497,7,135565,113207
8766,495,7,135564,113215
8769,499,7,135573,113209
8771,506,7,135563,113217
8774,510,7,135570,113221
8776,505,7,135578,113222
8779,503,7,135591,113224
8781,502,7,135602,113228
8783,501,7,135612,113229
8786,502,7,135617,113239
8788,505,7,135625,113231
8792,511,7,135612,113236
8794,514,7,135619,113236
8797,513,7,135618,113235
8799,508,7,135616,113242
8802,505,7,135622,113244
8804,501,7,135620,113248
8806,501,7,135630,113246
8809,506,7,135638,113241
8811,510,7,135647,113244
8814,513,7,135653,113249
8816,506,7,135659,113249
8819,504,7,135661,113252
8821,503,7,135666,113260
8823,502,7,135672,113256
8826,502,7,135668,113263
8828,503,7,135667,113263
8832,506,7,135690,113264
8834,509,7,135699,113271
8837,505,7,135704,113266
8839,501,7,135703,113264
8842,498,7,135699,113273
8844,492,7,135707,113272
8846,493,7,135722,113279
8849,499,7,135719,113285
8851,502,7,135724,113292
8854,505,7,135725,113284
8856,499,7,135734,113298
8859,498,7,135736,113289
8861,498,7,135753,113294
8863,497,7,135755,113295
8866,497,7,135761,113302
8868,501,7,135775,113308
8871,505,7,135774,113305
8873,506,7,135793,113316
8877,503,7,135787,113320
8879,497,7,135794,113323
8882,498,7,135813,113321
8884,498,7,135816,113329
8886,497,7,135823,113324
8889,504,7,135823,113333
8891,506,7,135844,113337
8894,506,7,135851,113338
8896,507,7,135857,113343
8899,507,7,135869,113340
8901,506,7,135874,113343
8903,503,7,135876,113350
8906,501,7,135890,113351
8908,505,7,135893,113351
8911,508,7,135900,113350
8913,509,7,135915,113360
8916,507,7,135915,113362
8919,505,7,135929,113370
8922,504,7,135939,113375
8924,501,7,135945,113369
8926,499,7,135958,113375
8929,506,7,135961,113376
8931,513,7,135973,113374
8934,514,7,135977,113380
8936,511,7,135980,113380
8939,508,7,135988,113381
8941,503,7,136008,113387
8943,500,7,136008,113385
8946,501,7,136013,113395
8948,504,7,136018,113395
8951,512,7,136034,113400
8953,511,7,136028,113403
8956,507,7,136028,113403
8958,505,7,136034,113411
8962,507,7,136049,113411
8964,504,7,136062,113415
8966,504,7,136066,113409
8969,510,7,136076,113421
8971,513,7,136076,113418
8974,515,7,136084,113423
8976,511,7,136092,113431
8979,506,7,136092,113428
8981,504,7,136114,113428
8983,505,7,136117,113428
8986,512,7,136123,113441
8988,520,7,136123,113446
8991,535,7,136144,113448
8993,547,7,136148,113448
8996,559,7,136166,113444
8998,574,7,136160,113458
9001,578,8,136181,113472
9004,576,7,136194,113467
9006,573,7,136201,113467
9009,564,7,136212,113475
9011,554,7,136212,113476
9014,537,7,136220,113484
9016,522,7,136236,113484
9019,505,7,136254,113484
9021,483,7,136263,113491
9023,476,7,136263,113501
9026,474,7,136281,113509
9028,477,7,136292,113509
9031,484,7,136313,113505
9033,490,7,136313,113514
9036,490,7,136319,113518
9038,490,7,136330,113518
9041,489,7,136352,113519
9043,486,7,136356,113532
9046,484,7,136356,113538
9049,487,7,136375,113544
9051,492,7,136392,113544
9054,496,7,136411,113550
9056,494,7,136411,113549
9059,490,7,136428,113560
9061,488,7,136441,113560
9063,486,7,136458,113564
9066,484,7,136463,113577
9068,486,7,136478,113577
9071,492,7,136478,113584
9073,494,7,136489,113592
9076,491,7,136514,113592
9078,486,7,136514,113596
9081,484,7,136521,113598
9083,483,7,136543,113598
9085,482,7,136562,113604
9089,487,7,136570,113614
9091,490,7,136583,113614
9094,494,7,136583,113617
9096,490,7,136598,113627
9099,488,7,136580,113627
9101,488,7,136596,113630
9103,485,7,136639,113642
9106,485,7,136639,113653
9108,490,7,136652,113651
9111,494,7,136683,113651
9113,495,7,136688,113659
9116,491,7,136688,113661
9118,490,7,136681,113661
9121,488,7,136681,113668
9123,485,7,136687,113675
9125,486,7,136730,113675
9128,492,7,136730,113680
9131,496,7,136745,113688
9134,498,7,136757,113688
9136,496,7,136771,113692
9139,492,7,136771,113695
9141,490,7,136768,113707
9143,486,7,136792,113707
9146,488,7,136803,113705
9148,498,7,136803,113716
9151,500,7,136813,113722
9153,499,7,136816,113715
9156,498,7,136835,113715
9158,495,7,136835,113726
9161,497,7,136847,113726
9163,496,7,136857,113727
9165,496,7,136857,113743
9168,500,7,136863,113741
9170,504,7,136870,113746
9174,503,7,136878,113744
9176,500,7,136889,113748
9179,499,7,136899,113748
9181,499,7,136906,113747
9183,498,7,136915,113759
9186,497,7,136911,113759
9188,506,7,136923,113759
9191,510,7,136935,113766
9193,514,7,136935,113766
9196,506,7,136935,113769
9198,503,7,136932,113769
9201,504,7,136936,113767
9203,502,7,136931,113766
9205,500,7,136916,113758
9208,501,7,136912,113755
9210,514,7,136885,113742
9213,515,7,136871,113743
9216,513,7,136838,113709
9219,508,7,136808,113709
9221,505,7,136748,113688
9223,504,7,136698,113662
9226,504,7,136619,113634
9228,507,7,136536,113608
9231,511,7,136446,113572
9233,515,7,136339,113536
9236,512,7,136228,113499
9238,509,7,136114,113444
9241,507,7,135985,113413
9243,503,7,135867,113359
9245,504,7,135732,113316
9248,508,7,135604,113265
9250,512,7,135487,113226
9253,514,7,135384,113203
9255,510,7,135297,113165
9259,506,7,135222,113142
9261,505,7,135155,113111
9263,503,7,135091,113094
9266,502,7,135057,113083
9268,505,7,135012,113071
9271,509,7,134986,113053
9273,510,7,134952,113039
9276,506,7,134912,113021
9278,500,7,134883,113011
9281,496,7,134859,113002
9283,489,7,134830,112987
9285,486,7,134805,112978
9288,488,7,134797,112964
9290,491,7,134767,112960
9293,495,7,134748,112951
9295,490,7,134734,112947
9298,485,7,134723,112941
9300,482,7,134721,112935
9303,479,7,134711,112925
9306,476,7,134691,112923
9308,479,7,134687,112919
9311,483,7,134680,112918
9313,484,7,134675,112913
9316,481,7,134669,112913
9318,479,7,134670,112909
9321,476,7,134673,112910
9323,473,7,134670,112906
9325,472,7,134670,112913
9328,474,7,134680,112912
9330,481,7,134682,112907
9333,487,7,134683,112916
9335,483,7,134686,112920
9338,479,7,134692,112929
9340,476,7,134702,112929
9342,476,7,134722,112936
9346,477,7,134733,112939
9348,480,7,134745,112942
9351,488,7,134752,112950
9353,487,7,134770,112953
9356,485,7,134780,112958
9358,484,7,134794,112963
9361,483,7,134813,112971
9363,481,7,134829,112982
9365,479,7,134838,112991
9368,481,7,134851,112988
9370,487,7,134865,112998
9373,489,7,134881,113007
9375,483,7,134899,113009
9378,481,7,134912,113010
9380,484,7,134929,113019
9382,481,7,134949,113021
9385,480,7,134959,113029
9388,486,7,134968,113016
9391,494,7,134983,113037
9393,495,7,134997,113042
9396,492,7,135014,113046
9398,487,7,135021,113045
9401,484,7,135027,113053
9403,480,7,135039,113059
9405,480,7,135051,113056
9408,484,7,135067,113057
9410,491,7,135071,113063
9413,494,7,135076,113066
9415,489,7,135083,113068
9418,486,7,135083,113077
9420,486,7,135094,113076
9422,485,7,135103,113076
9425,484,7,135121,113080
9427,490,7,135123,113088
9431,493,7,135127,113084
9433,495,7,135130,113092
9436,494,7,135146,113090
9438,487,7,135156,113093
9441,486,7,135156,113098
9443,486,7,135173,113102
9445,485,7,135186,113102
9448,492,7,135210,113119
9450,495,7,135214,113118
9453,496,7,135214,113124
9455,494,7,135235,113126
9458,492,7,135250,113126
9460,489,7,135264,113143
9462,487,7,135264,113142
9465,486,7,135282,113151
9467,488,7,135293,113151
9470,493,7,135309,113167
9473,495,7,135309,113154
9476,492,7,135309,113154
9478,490,7,135324,113159
9481,489,7,135323,113159
9483,485,7,135329,113159
9485,484,7,135329,113166
9488,488,7,135323,113162
9490,493,7,135323,113162
9493,497,7,135335,113163
9495,496,7,135328,113161
9498,493,7,135324,113170
9500,488,7,135324,113165
9502,486,7,135329,113161
9505,489,7,135315,113161
9507,490,7,135315,113154
9510,495,7,135302,113156
9512,498,7,135300,113156
9516,499,7,135294,113157
9518,495,7,135289,113151
9521,494,7,135274,113145
9523,488,7,135277,113149
9525,488,7,135260,113149
9528,497,7,135257,113140
9530,499,7,135257,113142
9533,500,7,135254,113140
9535,499,7,135233,113140
9538,497,7,135222,113132
9540,498,7,135222,113124
9542,495,7,135212,113124
9545,493,7,135202,113124
9547,495,7,135200,113122
9550,499,7,135181,113111
9552,501,7,135181,113111
9555,498,7,135162,113111
9558,496,7,135162,113103
9561,492,7,135156,113093
9563,492,7,135133,113093
9565,492,7,135130,113091
9568,498,7,135130,113082
9570,503,7,135102,113097
9573,505,7,135123,113091
9575,503,7,135123,113091
9578,497,7,135123,113082
9580,497,7,135103,113082
9582,496,7,135106,113091
9585,497,7,135106,113083
9587,503,7,135115,113082
9590,507,7,135106,113082
9592,508,7,135114,113084
9595,504,7,135114,113084
9597,502,7,135091,113084
9601,501,7,135091,113089
9603,499,7,135097,113084
9605,499,7,135125,113084
9608,504,7,135125,113101
9610,508,7,135145,113099
9613,509,7,135142,113099
9615,506,7,135153,113106
9618,498,7,135153,113110
9620,498,7,135173,113110
9622,495,7,135173,113119
9625,494,7,135184,113119
9627,497,7,135193,113119
9630,503,7,135221,113128
9632,507,7,135225,113137
9635,506,7,135225,113149
9637,503,7,135258,113152
9640,503,7,135260,113152
9643,500,7,135274,113149
9645,498,7,135274,113159
9648,501,7,135294,113165
9650,505,7,135307,113173
9653,506,7,135312,113173
9655,502,7,135330,113181
9658,501,7,135343,113181
9660,500,7,135359,113185
9662,500,7,135381,113186
9665,499,7,135396,113200
9667,508,7,135423,113209
9670,512,7,135450,113212
9672,513,7,135450,113220
9675,504,7,135462,113224
9677,500,7,135478,113224
9680,499,7,135497,113239
9682,497,7,135508,113250
9684,496,7,135530,113253
9688,498,7,135550,113254
9690,511,7,135568,113259
9693,512,7,135578,113265
9695,509,7,135593,113282
9698,504,7,135613,113282
9700,497,7,135618,113283
9702,496,7,135650,113290
9705,495,7,135649,113291
9707,498,7,135661,113293
9710,502,7,135682,113296
9712,506,7,135693,113314
9715,502,7,135696,113316
9717,498,7,135715,113313
9720,495,7,135723,113321
9722,491,7,135754,113326
9724,492,7,135762,113336
9728,495,7,135762,113336
9730,500,7,135783,113338
9733,503,7,135788,113343
9735,501,7,135802,113349
9738,498,7,135812,113356
9740,496,7,135821,113353
9742,495,7,135834,113358
9745,495,7,135841,113365
9747,499,7,135855,113364
9750,504,7,135866,113374
9752,506,7,135880,113377
9755,505,7,135894,113379
9757,501,7,135901,113385
9760,498,7,135901,113393
9762,495,7,135918,113389
9764,494,7,135924,113394
9767,497,7,135937,113387
9769,502,7,135933,113402
9773,508,7,135943,113405
9775,508,7,135952,113410
9778,504,7,135970,113411
9780,499,7,135970,113421
9782,497,7,135969,113423
9785,495,7,135994,113421
9787,498,7,136003,113427
9790,504,7,136012,113425
9792,507,7,136018,113426
9795,506,7,136015,113429
9797,504,7,136022,113435
9800,502,7,136034,113438
9802,501,7,136027,113441
9804,499,7,136035,113447
9807,501,7,136050,113439
9809,508,7,136053,113443
9812,515,7,136062,113451
9815,511,7,136071,113454
9818,506,7,136067,113459
9820,503,7,136076,113458
9822,503,7,136087,113459
9825,504,7,136074,113466
9827,506,7,136086,113458
9830,513,7,136088,113460
9832,511,7,136097,113468
9835,509,7,136093,113458
9837,508,7,136092,113473
9840,507,7,136109,113474
9842,505,7,136117,113479
9844,502,7,136122,113480
9847,503,7,136124,113488
9849,508,7,136133,113483
9852,510,7,136133,113484
9854,504,7,136141,113484
9858,501,7,136149,113485
9860,501,7,136153,113489
9862,499,7,136165,113491
9865,496,7,136176,113493
9867,497,7,136166,113477
9870,504,7,136179,113504
9872,505,7,136191,113503
9875,501,7,136200,113512
9877,496,7,136205,113516
9880,494,7,136213,113514
9882,490,7,136221,113522
9884,491,7,136236,113521
9887,494,7,136244,113528
9889,500,7,136257,113527
9892,504,7,136264,113531
9894,499,7,136273,113541
9897,496,7,136273,113547
9900,495,7,136290,113548
9902,495,7,136311,113548
9905,494,7,136323,113558
9907,499,7,136334,113555
9910,502,7,136347,113561
9912,504,7,136350,113560
9915,503,7,136361,113567
9917,496,7,136382,113571
9920,494,7,136382,113577
9922,494,7,136396,113582
9924,492,7,136415,113582
9927,499,7,136430,113596
9929,503,7,136428,113589
9932,504,7,136428,113592
9934,503,7,136450,113599
9937,501,7,136468,113599
9939,498,7,136474,113629
9942,495,7,136474,113608
9945,494,7,136503,113618
9947,496,7,136514,113618
9950,501,7,136527,113626
9952,504,7,136538,113631
9955,501,7,136538,113639
9957,499,7,136560,113640
9960,498,7,136572,113640
9962,496,7,136586,113646
9964,493,7,136586,113654
9967,496,7,136597,113661
9969,501,7,136610,113661
9972,506,7,136623,113662
9974,505,7,136635,113667
9977,502,7,136644,113669
9979,496,7,136644,113672
9981,495,7,136656,113685
9985,497,7,136669,113688
9987,497,7,136669,113682
9990,501,7,136692,113691
9992,505,7,136700,113691
9995,506,7,136717,113699
9997,502,7,136719,113699
10000,500,7,136735,113707
10002,495,7,136749,113706
10004,494,7,136748,113706
10007,506,7,136764,113716
10009,511,7,136764,113717
10012,520,7,136778,113719
10014,526,7,136785,113719
10017,534,7,136789,113725
10019,556,7,136789,113737
10021,564,7,136803,113736
10024,568,7,136823,113736
10027,569,7,136839,113739
10030,570,7,136842,113748
10032,559,7,136842,113752
10035,543,7,136850,113752
10037,532,7,136861,113752
10040,518,7,136880,113760
10042,493,7,136880,113767
10044,478,7,136877,113768
10047,476,7,136876,113768
10049,480,7,136888,113772
10052,484,7,136913,113780
10054,483,7,136913,113784
10057,481,7,136931,113789
10059,481,7,136948,113789
10061,481,7,136961,113797
10064,482,7,136961,113794
10066,487,7,136967,113795
10070,491,7,136975,113795
10072,493,7,136996,113811
10075,488,7,136996,113808
10077,486,7,137006,113808
10080,484,7,137019,113817
10082,482,7,137019,113819
10084,482,7,137021,113822
10087,486,7,137046,113822
10089,491,7,137053,113829
10092,494,7,137053,113838
10094,491,7,137065,113837
10097,489,7,137078,113837
10099,488,7,137092,113852
10101,487,7,137100,113853
10104,485,7,137100,113862
10106,490,7,137110,113870
10109,495,7,137133,113870
10112,497,7,137138,113867
10115,492,7,137138,113876
10117,489,7,137152,113877
10120,488,7,137153,113877
10122,487,7,137177,113879
10124,489,7,137177,113891
10127,493,7,137190,113891
10129,499,7,137190,113895
10132,502,7,137195,113906
10134,496,7,137215,113908
10137,494,7,137226,113908
10139,493,7,137223,113911
10141,492,7,137238,113915
10144,491,7,137248,113918
10146,499,7,137262,113928
10149,504,7,137272,113928
10151,505,7,137272,113935
10155,504,7,137277,113936
10157,494,7,137285,113938
10160,494,7,137302,113938
10162,492,7,137312,113947
10164,492,7,137309,113947
10167,494,7,137323,113955
10169,507,7,137329,113955
10172,508,7,137354,113956
10174,506,7,137354,113966
10177,502,7,137360,113966
10179,497,7,137365,113963
10181,497,7,137387,113971
10184,496,7,137376,113980
10186,498,7,137389,113970
10189,503,7,137398,113979
10191,508,7,137406,113980
10194,505,7,137406,113986
10196,501,7,137416,113983
10200,499,7,137418,113987
10202,501,7,137423,113988
10204,501,7,137435,113990
10207,503,7,137423,113992
10209,507,7,137442,113998
10212,511,7,137451,114000
10214,509,7,137456,114004
10217,505,7,137457,114007
10219,504,7,137462,114005
10221,503,7,137452,114005
10224,502,7,137463,114007
10226,507,7,137463,114007
10229,513,7,137467,114008
10231,515,7,137467,114010
10234,515,7,137467,114001
10236,512,7,137454,114001
10240,509,7,137449,113988
10242,507,7,137427,113984
10244,505,7,137406,113973
10247,508,7,137374,113957
10249,513,7,137336,113943
10252,520,7,137288,113920
10254,520,7,137221,113896
10257,516,7,137173,113870
10259,512,7,137096,113843
10261,510,7,137015,113815
10264,508,7,136913,113770
10266,511,7,136808,113734
10269,517,7,136689,113692
10271,520,7,136560,113646
10274,518,7,136424,113598
10276,516,7,136288,113552
10279,513,7,136149,113503
10281,510,7,136001,113451
10284,507,7,135865,113413
10287,509,7,135747,113369
10289,515,7,135642,113326
10292,520,7,135530,113297
10294,516,7,135451,113272
10297,509,7,135372,113249
10299,502,7,135316,113226
10301,500,7,135289,113212
10304,498,7,135236,113192
10306,498,7,135200,113181
10309,502,7,135171,113168
10311,499,7,135142,113162
10314,497,7,135127,113145
10316,493,7,135091,113145
10319,490,7,135079,113131
10321,487,7,135058,113134
10323,483,7,135038,113127
10327,483,7,135030,113117
10329,487,7,135018,113113
10332,489,7,135008,113108
10334,484,7,135001,113106
10337,481,7,134996,113097
10339,482,7,134987,113094
10341,481,7,134997,113094
10344,478,7,134997,113095
10346,480,7,134987,113072
10349,492,7,134990,113102
10351,494,7,134993,113092
10354,491,7,135000,113102
10356,486,7,135001,113109
10359,484,7,135010,113104
10361,480,7,135034,113115
10363,480,7,135036,113112
10366,484,7,135052,113121
10369,492,7,135060,113127
10372,497,7,135068,113127
10374,492,7,135091,113135
10377,489,7,135091,113142
10379,489,7,135118,113151
10381,489,7,135136,113151
10384,489,7,135159,113165
10386,494,7,135174,113164
10389,498,7,135202,113177
10391,502,7,135221,113187
10394,502,7,135245,113192
10396,495,7,135278,113203
10399,493,7,135278,113218
10401,494,7,135316,113219
10403,493,7,135333,113219
10406,499,7,135362,113242
10408,502,7,135385,113242
10412,503,7,135385,113254
10414,503,7,135430,113265
10417,503,7,135456,113265
10419,500,7,135485,113303
10421,499,7,135485,113290
10424,497,7,135520,113304
10426,499,7,135553,113304
10429,504,7,135578,113309
10431,507,7,135595,113332
10434,504,7,135595,113344
10436,502,7,135640,113350
10439,501,7,135670,113350
10441,498,7,135691,113373
10443,495,7,135691,113372
10446,500,7,135728,113377
10448,505,7,135751,113377
10451,507,7,135776,113391
10454,507,7,135796,113408
10457,504,7,135826,113421
10459,499,7,135826,113429
10461,498,7,135848,113442
10464,498,7,135891,113450
10466,498,7,135891,113462
10469,505,7,135944,113462
10471,509,7,135962,113462
10474,509,7,136003,113472
10476,501,7,136023,113492
10479,499,7,136048,113503
10481,494,7,136070,113511
10483,493,7,136100,113511
10486,501,7,136119,113532
10488,503,7,136119,113546
10491,505,7,136150,113549
10493,505,7,136187,113549
10497,501,7,136206,113557
10499,501,7,136206,113577
10501,499,7,136231,113582
10504,497,7,136259,113582
10506,497,7,136280,113583
10509,501,7,136285,113592
10511,503,7,136285,113597
10514,501,7,136298,113587
10516,500,7,136303,113587
10519,497,7,136304,113599
10521,494,7,136304,113599
10523,490,7,136311,113602
10526,493,7,136301,113602
10528,500,7,136302,113596
10531,504,7,136291,113603
10533,501,7,136291,113594
10536,497,7,136278,113596
10539,495,7,136273,113596
10541,493,7,136264,113595
10544,491,7,136264,113575
10546,495,7,136246,113575
10549,499,7,136213,113575
10551,502,7,136199,113567
10554,497,7,136199,113555
10556,495,7,136164,113555
10559,492,7,136143,113551
10561,491,7,136143,113539
10563,490,7,136117,113527
10566,493,7,136078,113527
10568,497,7,136049,113522
10571,500,7,136049,113504
10573,498,7,136031,113496
10576,496,7,135973,113496
10578,494,7,135955,113482
10580,494,7,135927,113478
10584,492,7,135927,113461
10586,496,7,135902,113459
10589,501,7,135865,113459
10591,502,7,135847,113447
10594,498,7,135847,113437
10596,494,7,135830,113432
10599,493,7,135811,113432
10601,492,7,135781,113426
10603,492,7,135781,113414
10606,496,7,135759,113414
10608,502,7,135759,113406
10611,503,7,135743,113401
10613,499,7,135742,113399
10616,496,7,135730,113399
10618,494,7,135732,113404
10620,494,7,135723,113395
10624,492,7,135726,113401
10626,499,7,135728,113394
10629,504,7,135727,113397
10631,506,7,135727,113399
10634,498,7,135727,113404
10636,494,7,135729,113404
10639,493,7,135732,113398
10641,491,7,135738,113412
10643,491,7,135756,113405
10646,492,7,135758,113411
10648,504,7,135773,113417
10651,506,7,135790,113421
10653,504,7,135790,113425
10656,500,7,135795,113425
10658,495,7,135809,113437
10660,494,7,135835,113436
10663,492,7,135841,113447
10665,494,7,135851,113450
10669,498,7,135873,113456
10671,502,7,135876,113459
10674,500,7,135899,113464
10676,495,7,135912,113462
10679,491,7,135925,113468
10681,490,7,135942,113480
10683,489,7,135973,113484
10686,492,7,135970,113491
10688,495,7,136006,113497
10691,499,7,136023,113505
10693,497,7,136044,113512
10696,492,7,136059,113519
10698,491,7,136076,113520
10700,490,7,136096,113534
10703,488,7,136120,113542
10705,488,7,136132,113546
10708,497,7,136158,113555
10711,497,7,136180,113557
10714,495,7,136196,113571
10716,493,7,136216,113575
10719,491,7,136249,113592
10721,489,7,136259,113590
10723,487,7,136275,113597
10726,489,7,136294,113601
10728,493,7,136318,113611
10731,498,7,136331,113616
10733,494,7,136355,113618
10736,491,7,136366,113639
10738,490,7,136385,113638
10740,489,7,136409,113645
10743,487,7,136412,113645
10745,489,7,136431,113656
10748,492,7,136454,113651
10750,497,7,136472,113660
10754,496,7,136487,113670
10756,492,7,136490,113672
10759,490,7,136510,113682
10761,486,7,136524,113687
10763,485,7,136542,113698
10766,489,7,136546,113685
10768,492,7,136558,113702
10771,497,7,136572,113705
10773,493,7,136584,113712
10776,490,7,136605,113713
10778,488,7,136617,113724
10780,485,7,136629,113719
10783,486,7,136634,113730
10785,489,7,136642,113735
10788,493,7,136658,113732
10790,495,7,136672,113736
10793,494,7,136675,113745
10796,486,7,136691,113750
10799,486,7,136708,113752
10801,486,7,136706,113751
10803,483,7,136713,113755
10806,487,7,136717,113752
10808,489,7,136727,113763
10811,491,7,136734,113756
10813,493,7,136746,113762
10816,490,7,136759,113767
10818,487,7,136747,113771
10820,485,7,136761,113772
10823,483,7,136770,113770
10825,485,7,136774,113767
10828,490,7,136774,113760
10830,493,7,136775,113766
10833,492,7,136784,113765
10835,492,7,136779,113771
10839,491,7,136800,113769
10841,489,7,136798,113767
10843,491,7,136799,113768
10846,498,7,136803,113750
10848,504,7,136801,113771
10851,505,7,136809,113766
10853,503,7,136811,113767
10856,500,7,136813,113771
10858,495,7,136823,113778
10860,495,7,136823,113779
10863,494,7,136823,113768
10865,496,7,136821,113772
10868,504,7,136832,113778
10870,504,7,136827,113777
10873,502,7,136827,113781
10875,500,7,136838,113780
10878,499,7,136844,113780
10881,496,7,136856,113787
10883,494,7,136856,113778
10886,498,7,136845,113783
10888,502,7,136845,113785
10891,505,7,136858,113786
10893,502,7,136862,113792
10896,497,7,136862,113788
10898,494,7,136862,113797
10900,494,7,136869,113797
10903,492,7,136873,113796
10905,493,7,136879,113795
10908,501,7,136876,113798
10910,504,7,136876,113791
10913,504,7,136875,113793
10915,499,7,136875,113799
10918,496,7,136875,113800
10920,494,7,136886,113810
10923,493,7,136890,113810
10926,498,7,136903,113813
10928,501,7,136903,113815
10931,503,7,136907,113816
10933,502,7,136903,113816
10936,499,7,136921,113815
10938,500,7,136919,113824
10940,498,7,136919,113820
10943,495,7,136930,113823
10945,497,7,136946,113823
10948,501,7,136954,113836
10950,506,7,136954,113837
10953,504,7,136954,113845
10955,501,7,136968,113845
10958,499,7,136992,113843
10960,497,7,136988,113847
10962,493,7,136988,113854
10966,495,7,137005,113860
10968,501,7,137016,113860
10971,506,7,137023,113863
10973,506,7,137023,113864
10976,501,7,137042,113871
10978,499,7,137051,113871
10980,497,7,137068,113880
10983,494,7,137074,113886
10985,495,7,137084,113886
10988,504,7,137089,113895
10990,504,7,137089,113904
10993,502,7,137115,113904
10995,500,7,137115,113901
10998,499,7,137111,113905
11000,498,7,137135,113905
11002,496,7,137148,113916
11005,498,7,137160,113912
11008,502,7,137147,113912
11011,506,7,137147,113925
11013,503,7,137174,113935
11016,501,7,137194,113935
11018,498,7,137194,113937
11020,496,7,137206,113939
11023,493,7,137213,113939
11025,493,7,137195,113945
11028,504,7,137239,113953
11030,508,7,137245,113953
11033,512,7,137245,113961
11035,517,7,137253,113966
11038,524,7,137263,113966
11040,537,7,137263,113963
11042,549,7,137283,113969
11045,559,7,137283,113969
11047,567,7,137302,113975
11051,567,7,137302,113980
11053,555,7,137291,113983
11056,544,7,137310,113983
11058,536,7,137337,113990
11060,520,8,137337,113998
11063,514,7,137339,113998
11065,505,7,137349,113996
11068,498,7,137349,114007
11070,495,7,137346,114005
11073,492,7,137359,114005
11075,489,7,137371,114007
11078,487,7,137371,114013
11080,486,7,137376,114018
11082,486,7,137384,114018
11085,492,7,137406,114025
11087,500,7,137416,114029
11090,509,7,137416,114038
11092,507,7,137434,114035
11096,505,7,137440,114035
11098,502,7,137440,114048
11100,501,7,137440,114049
11103,499,7,137447,114046
11105,500,7,137463,114046
11108,507,7,137478,114056
11110,513,7,137484,114060
11113,511,7,137484,114062
11115,506,7,137493,114062
11118,504,7,137500,114067
11120,502,7,137499,114072
11122,502,7,137519,114079
11125,503,7,137530,114082
11127,517,7,137537,114084
11130,519,7,137552,114085
11132,519,7,137552,114098
11136,515,7,137562,114098
11138,510,7,137573,114098
11140,510,7,137596,114102
11143,509,7,137593,114109
11145,510,7,137596,114101
11148,515,7,137615,114111
11150,521,7,137628,114120
11153,520,7,137626,114125
11155,516,7,137643,114128
11158,512,7,137642,114130
11160,512,7,137655,114130
11162,510,7,137663,114135
11165,512,7,137670,114141
11167,518,7,137685,114147
11170,524,7,137687,114159
11172,525,7,137701,114153
11175,521,7,137701,114159
11177,520,7,137719,114160
11180,519,7,137732,114173
11183,516,7,137725,114174
11185,519,7,137742,114175
11188,526,7,137751,114181
11190,529,7,137764,114173
11193,528,7,137777,114185
11195,525,7,137792,114190
11198,522,7,137799,114196
11200,519,7,137811,114203
11202,516,7,137816,114196
11205,517,7,137803,114198
11207,522,7,137827,114205
11210,530,7,137829,114203
11212,532,7,137834,114215
11215,527,7,137835,114214
11217,523,7,137847,114226
11219,521,7,137858,114229
11223,520,7,137873,114231
11225,521,7,137878,114230
11228,527,7,137890,114235
11230,531,7,137901,114237
11233,531,7,137912,114253
