TimeStamp,ECG Data,GSR Data,PPG_Red Data,PPG_IR Data
153140,524,7,135831,116747
153133,529,7,135819,116765
153135,522,7,135823,116766
153138,523,7,135826,116759
153140,524,7,135831,116747
6,417,4,0,57550
8,366,4,57559,57550
11,290,4,73933,73955
13,205,4,90310,90340
16,135,4,106682,106684
18,73,4,123079,116447
21,30,4,135251,116447
23,19,4,135053,116441
25,11,4,135053,116440
28,7,4,135055,116447
30,3,4,135052,116450
33,2,4,135055,116443
35,1,4,135065,116446
38,1,4,135067,116449
40,0,4,135074,116442
43,0,4,135072,116446
46,0,4,135084,116456
48,0,4,135072,116448
51,0,4,135083,116443
53,0,4,135077,116448
56,0,4,135078,116451
58,0,4,135073,116447
61,0,4,135075,116445
63,6,4,135079,116445
65,22,4,135072,116442
68,40,4,135064,116438
70,54,4,135078,116445
73,70,4,135089,116444
75,92,4,135072,116442
78,98,4,135078,116444
80,106,4,135089,116446
82,114,4,135088,116449
86,136,4,135091,116453
88,149,4,135095,116455
91,167,4,135096,116455
93,180,4,135113,116465
96,191,4,135116,116462
98,207,4,135129,116459
101,218,4,135121,116469
103,233,4,135133,116463
105,243,4,135137,116467
108,259,4,135141,116477
110,265,4,135150,116475
113,271,4,135167,116477
115,279,4,135162,116478
118,289,4,135173,116485
120,302,5,135184,116482
122,310,4,135184,116492
125,320,4,135189,116487
128,329,5,135193,116486
131,341,4,135194,116482
133,346,5,135176,116487
136,352,4,135198,116484
138,359,5,135186,116482
141,362,5,135188,116482
143,367,4,135191,116494
145,373,5,135189,116480
148,383,5,135204,116485
150,387,5,135183,116486
153,393,5,135191,116482
155,400,5,135184,116478
158,403,5,135180,116480
160,410,5,135172,116477
162,420,5,135172,116472
165,430,5,135170,116476
167,437,5,135168,116482
171,445,5,135161,116470
173,446,5,135160,116472
176,448,5,135147,116458
178,453,5,135144,116470
181,454,5,135138,116464
183,453,5,135136,116464
185,456,5,135131,116460
188,462,5,135123,116458
190,464,5,135128,116467
193,468,5,135117,116440
195,476,6,135113,116454
198,476,6,135117,116449
200,473,6,135120,116456
202,475,6,135110,116460
205,482,6,135113,116461
207,487,6,135107,116451
210,492,6,135111,116455
212,499,6,135113,116457
216,506,6,135110,116453
218,519,6,135105,116460
221,525,6,135108,116457
223,527,6,135112,116453
225,527,6,135117,116452
228,527,6,135113,116449
230,529,6,135112,116459
233,529,6,135125,116459
235,531,6,135125,116462
238,533,6,135119,116459
240,536,6,135128,116462
242,538,6,135136,116458
245,539,6,135146,116463
247,541,6,135136,116463
250,546,6,135151,116459
252,550,6,135148,116461
256,551,6,135155,116482
258,552,6,135166,116469
261,555,6,135172,116469
263,559,7,135176,116480
265,560,7,135176,116479
268,564,6,135193,116486
270,566,7,135198,116483
273,565,7,135211,116489
275,565,7,135211,116485
278,566,7,135211,116482
280,566,7,135234,116491
282,565,7,135240,116491
285,565,7,135252,116508
287,562,7,135252,116520
290,559,7,135254,116502
292,556,7,135261,116502
295,553,7,135291,116504
297,554,7,135294,116520
301,557,7,135294,116534
303,560,7,135313,116526
305,560,7,135327,116526
308,562,7,135332,116537
310,564,7,135332,116542
313,567,7,135341,116544
315,567,7,135358,116544
318,565,7,135377,116548
320,565,7,135382,116550
322,568,7,135387,116550
325,574,7,135401,116560
327,573,7,135401,116561
330,575,7,135415,116565
332,576,7,135424,116565
335,576,7,135446,116574
337,576,7,135446,116578
340,581,7,135449,116587
343,584,7,135458,116576
345,583,7,135458,116588
348,581,7,135470,116588
350,580,7,135490,116588
353,577,7,135492,116599
355,584,7,135492,116597
358,587,7,135500,116597
360,588,7,135520,116604
362,590,7,135520,116606
365,594,8,135531,116606
367,593,7,135549,116604
370,591,7,135549,116604
372,591,7,135545,116619
375,587,8,135544,116619
377,582,7,135559,116619
380,579,8,135574,116622
382,581,8,135574,116622
385,585,7,135570,116621
388,586,8,135583,116621
390,586,8,135574,116628
393,588,7,135574,116631
395,588,7,135576,116631
398,584,7,135610,116638
400,579,8,135610,116636
402,581,7,135602,116639
405,582,8,135616,116637
407,580,8,135616,116635
410,584,8,135591,116635
412,588,8,135638,116636
415,592,8,135638,116641
417,593,8,135635,116643
420,590,8,135607,116643
422,583,8,135607,116649
424,578,8,135646,116640
428,576,8,135651,116640
430,572,8,135658,116652
433,578,8,135658,116655
435,582,8,135638,116655
438,586,8,135638,116652
440,584,8,135663,116649
442,585,8,135667,116649
445,591,8,135682,116654
447,593,8,135681,116658
450,598,8,135681,116670
452,598,8,135678,116661
455,595,8,135687,116661
457,590,8,135697,116659
460,587,8,135697,116667
462,587,8,135699,116669
464,588,8,135701,116669
467,591,8,135714,116670
470,593,8,135714,116668
473,593,8,135712,116674
475,597,8,135715,116675
478,602,8,135722,116680
480,605,8,135723,116677
482,606,8,135726,116677
485,606,8,135761,116683
487,605,8,135761,116686
490,601,8,135732,116690
492,598,8,135735,116688
495,598,8,135744,116688
497,599,8,135749,116691
500,599,8,135753,116691
502,599,8,135778,116702
504,598,8,135778,116694
507,594,8,135761,116688
509,585,8,135768,116697
513,584,8,135764,116695
515,580,8,135767,116697
518,577,8,135769,116700
520,568,8,135780,116701
522,565,8,135794,116701
525,562,7,135791,116701
527,560,8,135796,116706
530,559,8,135806,116707
532,561,8,135804,116704
535,569,8,135795,116709
537,574,8,135810,116714
540,577,8,135814,116702
542,582,7,135812,116714
544,581,8,135812,116720
547,575,7,135824,116721
549,568,8,135835,116716
552,563,8,135839,116726
555,567,8,135847,116720
558,572,8,135853,116727
560,572,8,135851,116724
562,569,8,135857,116733
565,568,8,135864,116724
567,567,8,135873,116731
570,566,8,135881,116739
572,571,8,135878,116736
575,583,8,135893,116739
577,584,7,135904,116746
580,584,8,135899,116747
582,585,8,135902,116739
584,583,8,135913,116743
587,582,7,135921,116749
589,582,8,135932,116763
592,581,7,135929,116757
594,580,8,135936,116760
598,577,8,135947,116763
600,575,8,135939,116764
602,577,8,135962,116764
605,577,8,135971,116769
607,577,7,135978,116774
610,577,8,135986,116774
612,576,7,135976,116781
615,577,7,135990,116785
617,579,8,135985,116781
620,578,7,136004,116789
622,575,7,136005,116780
624,575,8,136024,116785
627,580,7,136023,116787
629,584,7,136018,116789
632,593,8,136038,116797
634,607,8,136038,116801
637,622,7,136049,116797
640,651,8,136040,116802
642,671,8,136065,116810
645,681,8,136059,116806
647,685,8,136076,116816
650,683,8,136069,116816
652,672,8,136082,116816
655,655,8,136086,116822
657,620,8,136091,116819
660,605,8,136105,116821
662,588,8,136111,116827
664,567,7,136122,116832
667,553,8,136123,116829
669,544,8,136124,116841
672,542,8,136134,116836
674,543,8,136144,116845
677,549,8,136153,116837
679,556,8,136166,116846
681,561,8,136170,116847
685,561,8,136177,116853
687,560,7,136182,116856
690,558,7,136187,116866
692,555,8,136195,116866
695,553,7,136210,116874
697,549,8,136218,116871
700,555,8,136229,116868
702,556,7,136231,116875
704,550,7,136232,116881
707,542,8,136247,116887
709,537,7,136252,116882
712,538,7,136258,116897
714,541,8,136285,116889
717,547,8,136277,116891
719,554,7,136289,116902
721,559,7,136297,116894
724,559,8,136307,116899
727,559,7,136315,116904
730,557,8,136316,116912
732,558,8,136330,116901
735,557,8,136330,116911
737,556,7,136343,116923
740,556,7,136357,116923
742,550,7,136365,116924
744,549,8,136365,116924
747,551,8,136379,116929
749,553,8,136392,116934
752,554,7,136397,116934
754,554,7,136417,116940
757,555,8,136417,116956
759,554,7,136427,116942
761,551,7,136435,116942
764,548,8,136448,116949
766,549,7,136448,116967
770,548,8,136453,116955
772,544,7,136462,116963
775,542,8,136468,116963
777,545,7,136485,116969
780,545,8,136485,116975
782,544,7,136499,116975
784,545,7,136505,116975
787,548,8,136514,116985
789,547,8,136514,116992
792,547,7,136524,116996
794,546,8,136530,116996
797,543,7,136543,116986
799,544,8,136549,116994
801,547,8,136556,116994
804,552,8,136561,117005
806,555,8,136561,117008
809,565,8,136577,117011
812,569,8,136577,117011
815,568,8,136588,117003
817,566,8,136588,117004
820,567,8,136590,117008
822,563,8,136600,117013
824,558,8,136600,117013
827,558,7,136599,117012
829,558,8,136605,117020
832,561,8,136619,117017
834,565,8,136605,117017
837,566,8,136609,117008
839,564,8,136609,117004
841,568,8,136597,116993
844,569,8,136557,116985
846,568,8,136557,116978
849,573,8,136504,116959
851,573,8,136473,116960
855,574,8,136441,116941
857,576,8,136390,116941
860,577,8,136333,116918
862,577,8,136333,116873
864,576,8,136285,116846
867,575,8,136134,116846
869,574,8,136058,116821
872,573,8,136058,116766
874,571,8,135881,116766
877,568,8,135817,116736
879,561,8,135817,116665
881,563,8,135737,116640
884,563,8,135575,116617
886,561,8,135575,116579
889,565,8,135413,116579
891,568,8,135395,116561
894,570,8,135395,116524
897,573,8,135296,116524
900,584,8,135296,116492
902,586,8,135182,116492
904,583,8,135186,116479
907,571,8,135186,116448
909,568,8,135152,116436
912,566,8,135097,116436
914,563,8,135097,116420
917,562,8,135072,116415
919,558,8,135026,116415
921,548,8,135013,116408
924,541,8,135013,116385
926,538,8,134992,116383
929,534,8,134960,116383
931,523,8,134960,116376
934,525,8,134937,116376
936,526,8,134939,116370
940,527,8,134939,116358
942,525,8,134919,116355
944,524,8,134920,116355
947,526,8,134916,116348
949,526,8,134916,116346
952,524,8,134896,116355
954,525,8,134899,116342
957,528,8,134885,116347
959,531,8,134888,116352
961,534,8,134885,116352
964,535,7,134907,116339
966,535,8,134907,116338
969,532,8,134890,116336
971,530,8,134887,116344
974,531,8,134892,116344
976,533,8,134891,116345
979,534,8,134905,116345
982,534,8,134909,116342
984,533,7,134909,116343
987,530,7,134913,116349
989,523,7,134913,116344
992,523,7,134931,116342
994,520,8,134905,116347
997,516,8,134918,116346
999,512,7,134946,116350
1001,508,7,134945,116352
1004,503,7,134938,116352
1006,502,7,134953,116359
1009,502,7,134934,116358
1011,503,7,134961,116358
1014,504,7,134962,116361
1016,507,7,134960,116355
1019,511,8,134952,116366
1021,516,7,134955,116368
1024,519,8,134957,116357
1027,523,7,134960,116355
1029,525,7,134952,116357
1032,522,7,134958,116357
1034,520,7,134951,116352
1037,519,7,134955,116358
1039,516,7,134955,116355
1041,514,7,134951,116353
1044,514,7,134951,116357
1046,515,8,134941,116353
1049,519,7,134952,116351
1051,527,7,134954,116356
1054,533,7,134936,116347
1056,537,7,134944,116347
1059,535,7,134937,116344
1061,531,7,134939,116340
1063,535,7,134939,116344
1067,537,7,134936,116346
1069,538,7,134928,116341
1072,545,7,134927,116341
1074,543,7,134944,116344
1077,543,7,134937,116348
1079,542,7,134932,116338
1081,539,7,134945,116341
1084,536,7,134951,116341
1086,536,7,134949,116343
1089,536,7,134955,116349
1091,535,7,134953,116345
1094,536,7,134951,116349
1096,537,7,134960,116346
1099,535,7,134967,116349
1101,532,7,134967,116345
1103,532,7,134982,116355
1106,531,7,134985,116349
1108,530,7,134975,116361
1112,532,7,134988,116363
1114,533,7,134997,116359
1117,534,7,134993,116361
1119,534,7,134994,116364
1121,534,7,135007,116368
1124,538,7,135006,116366
1126,540,7,135014,116364
1129,540,7,135018,116370
1131,537,7,135011,116366
1134,537,7,135021,116369
1136,536,7,135022,116371
1139,534,7,135018,116378
1141,531,8,135018,116370
1143,532,7,135016,116382
1146,531,7,135019,116370
1148,530,7,135029,116372
1152,533,7,135019,116367
1154,532,7,135019,116371
1157,537,7,135014,116366
1159,539,7,135015,116351
1161,534,7,135018,116365
1164,525,7,135011,116371
1166,520,7,135006,116360
1169,519,7,135006,116359
1171,520,7,135010,116360
1174,525,7,134998,116364
1176,536,7,134997,116363
1179,542,7,134991,116359
1181,540,7,134993,116357
1183,537,7,134998,116356
1186,535,7,134995,116352
1188,535,7,134982,116354
1191,533,7,134983,116354
1193,531,7,134983,116352
1197,531,7,134976,116350
1199,531,7,134983,116349
1201,530,7,134972,116344
1204,527,7,134972,116348
1206,527,7,134988,116345
1209,532,7,134981,116348
1211,534,7,134974,116347
1214,533,8,134976,116349
1216,531,7,134981,116344
1219,533,7,134981,116345
1221,534,7,134980,116341
1223,534,7,134980,116357
1226,533,7,134984,116347
1228,532,7,134982,116342
1231,531,7,134983,116342
1233,528,7,134995,116344
1236,527,7,134995,116356
1239,524,7,134990,116350
1241,520,7,134997,116350
1244,518,7,135006,116356
1246,517,7,135006,116366
1249,516,7,135022,116375
1251,513,7,135015,116361
1254,509,8,135023,116361
1256,509,7,135031,116364
1259,513,7,135031,116362
1261,515,7,135035,116362
1263,514,7,135038,116362
1266,513,7,135062,116374
1268,515,7,135062,116375
1271,516,7,135058,116368
1273,518,7,135076,116383
1276,520,7,135084,116383
1278,516,7,135090,116390
1281,517,7,135090,116383
1284,526,7,135106,116396
1286,529,7,135110,116396
1289,524,7,135132,116399
1291,524,7,135132,116401
1294,527,7,135131,116408
1296,528,7,135145,116408
1299,526,7,135163,116407
1301,522,7,135170,116413
1303,523,7,135170,116420
1306,522,7,135180,116422
1308,524,7,135187,116428
1311,525,7,135187,116430
1313,527,7,135212,116430
1316,526,8,135227,116428
1318,522,7,135227,116438
1320,526,7,135233,116439
1324,525,7,135246,116446
1326,526,7,135246,116449
1329,527,7,135274,116450
1331,522,7,135272,116458
1334,523,7,135288,116462
1336,525,7,135286,116462
1339,527,8,135314,116456
1341,528,7,135314,116464
1343,528,7,135305,116468
1346,527,7,135321,116468
1348,527,7,135332,116475
1351,526,8,135332,116475
1353,524,8,135338,116475
1356,520,7,135363,116480
1358,515,7,135363,116481
1360,516,7,135363,116484
1363,517,8,135380,116492
1366,515,8,135380,116494
1369,514,7,135390,116494
1371,512,7,135392,116491
1374,512,7,135392,116501
1376,515,7,135409,116496
1379,514,7,135417,116508
1645,563,7,135922,116699
1648,583,7,135925,116703
1650,610,7,135933,116706
1653,620,7,135945,116707
1655,626,7,135956,116714
1658,617,7,135957,116711
1660,592,7,135960,116713
1662,576,7,135970,116719
1666,561,7,135986,116717
1668,541,7,135979,116717
1671,521,7,135990,116722
1673,495,7,135993,116726
1676,488,7,136002,116725
1678,484,7,136013,116732
1680,484,7,136016,116737
1683,486,7,136026,116740
1685,489,7,136050,116735
1688,497,7,136042,116732
1690,502,7,136039,116742
1693,504,7,136054,116737
1695,505,7,136068,116749
1698,508,7,136071,116752
1700,509,7,136082,116748
1702,510,7,136085,116753
1705,509,7,136093,116762
1708,508,7,136100,116765
1711,507,7,136109,116765
1713,504,7,136123,116768
1716,503,7,136123,116778
1718,501,7,136131,116772
1720,497,7,136147,116772
1723,493,7,136157,116780
1725,494,7,136163,116792
1728,492,7,136164,116784
1730,489,7,136175,116786
1733,489,7,136186,116810
1735,492,7,136187,116794
1738,496,7,136196,116794
1740,502,7,136218,116805
1742,505,7,136218,116800
1745,512,7,136221,116826
1747,515,7,136235,116826
1751,513,7,136241,116813
1753,508,7,136256,116811
1756,508,7,136256,116833
1758,507,7,136267,116827
1760,504,7,136271,116827
1763,502,7,136284,116835
1765,503,7,136284,116838
1768,504,7,136293,116843
1770,502,7,136311,116843
1773,499,7,136323,116839
1775,499,7,136323,116837
1778,503,7,136305,116840
1780,503,7,136335,116840
1782,500,7,136335,116847
1785,502,7,136343,116849
1787,503,7,136351,116849
1790,503,7,136367,116858
1793,509,7,136367,116860
1796,511,7,136376,116860
1798,518,7,136384,116859
1800,520,7,136384,116869
1803,526,7,136392,116870
1805,527,7,136402,116870
1808,525,7,136408,116874
1810,523,7,136408,116872
1813,527,7,136412,116882
1815,526,7,136427,116882
1818,524,7,136438,116887
1820,522,7,136438,116894
1822,523,7,136435,116892
1825,522,7,136447,116894
1827,522,7,136463,116894
1830,523,7,136461,116900
1832,524,7,136461,116897
1836,529,7,136473,116901
1838,530,7,136479,116901
1840,529,7,136484,116910
1843,530,7,136484,116907
1845,531,7,136489,116901
1848,530,7,136482,116901
1850,529,7,136485,116907
1853,529,7,136485,116887
1855,530,8,136439,116887
1858,533,7,136418,116889
1860,538,7,136418,116856
1862,537,7,136398,116851
1865,534,7,136332,116851
1867,527,7,136282,116831
1870,527,7,136282,116787
1872,529,7,136136,116787
1875,529,7,136111,116769
1878,525,7,136111,116713
1880,527,7,136039,116685
1883,528,7,135878,116654
1885,525,7,135878,116621
1888,529,7,135681,116621
1890,532,7,135629,116595
1893,537,7,135629,116530
1895,537,7,135546,116513
1898,534,7,135445,116513
1900,527,7,135349,116481
1902,526,7,135349,116445
1905,528,7,135282,116422
1907,531,7,135234,116400
1910,536,7,135189,116387
1912,540,7,135142,116377
1915,543,7,135111,116377
1917,544,7,135047,116362
1920,540,7,135047,116334
1923,531,7,135013,116329
1925,526,7,134986,116329
1928,524,7,134943,116320
1930,522,7,134917,116313
1933,518,7,134917,116291
1935,512,7,134904,116280
1938,512,7,134874,116280
1940,513,7,134859,116280
1942,513,7,134859,116271
1945,508,7,134836,116265
1947,498,7,134831,116264
1950,495,7,134838,116253
1952,493,7,134805,116255
1955,494,7,134806,116251
1957,487,7,134817,116243
1959,482,7,134799,116243
1963,480,7,134777,116239
1965,481,7,134793,116241
1968,481,7,134791,116243
1970,480,7,134789,116241
1973,477,7,134776,116237
1975,479,7,134781,116236
1978,486,7,134779,116236
1980,489,7,134782,116239
1982,492,7,134799,116232
1985,491,7,134791,116235
1987,498,7,134786,116236
1990,497,7,134803,116242
1992,497,7,134809,116240
1995,498,7,134803,116255
1997,492,7,134807,116249
1999,486,7,134812,116246
2002,482,7,134830,116253
2004,479,7,134823,116245
2008,477,7,134843,116256
2010,476,7,134842,116252
2013,474,7,134853,116259
2015,474,7,134851,116256
2018,474,7,134854,116264
2020,478,7,134866,116260
2022,485,7,134870,116265
2025,490,7,134866,116261
2027,494,7,134878,116269
2030,498,7,134880,116268
2032,500,7,134890,116270
2035,505,7,134878,116276
2037,509,7,134878,116262
2039,510,7,134885,116274
2042,513,7,134889,116269
2044,512,7,134890,116265
2048,512,7,134887,116267
2050,511,7,134878,116265
2053,508,7,134893,116262
2055,507,7,134891,116274
2058,508,7,134874,116265
2060,510,7,134882,116257
2062,510,7,134884,116261
2065,511,7,134872,116257
2067,509,7,134870,116256
2070,511,7,134873,116252
2072,513,7,134875,116258
2075,508,7,134880,116263
2077,505,7,134887,116265
2079,506,7,134881,116258
2082,505,7,134885,116266
2084,505,7,134885,116262
2087,504,7,134900,116265
2089,503,7,134887,116268
2093,505,7,134905,116265
2095,506,7,134898,116262
2098,504,7,134909,116275
2100,502,7,134911,116277
2102,503,7,134921,116281
2105,504,7,134935,116280
2107,502,7,134933,116284
2110,505,7,134942,116278
2112,506,7,134943,116283
2115,503,7,134954,116292
2117,501,7,134955,116292
2119,508,7,134965,116294
2122,510,7,134966,116294
2124,510,7,134975,116305
2127,511,7,134968,116294
2129,509,7,134971,116303
2132,509,7,134980,116298
2135,505,7,134979,116304
2138,511,7,134983,116300
2140,514,7,134987,116282
2142,509,7,134985,116304
2145,505,7,134983,116304
2147,512,7,134988,116294
2150,513,7,134972,116297
2152,512,7,134975,116270
2155,513,7,134960,116291
2157,507,7,134977,116277
2159,499,7,134962,116291
2162,487,7,134962,116287
2164,488,7,134962,116288
2167,495,7,134955,116282
2169,500,7,134937,116271
2172,503,7,134947,116274
2174,504,7,134950,116278
2178,508,7,134932,116273
2180,509,7,134928,116278
2182,510,7,134932,116267
2185,509,7,134924,116271
2187,508,7,134910,116269
2190,509,7,134912,116269
2192,507,7,134912,116264
2195,507,7,134912,116271
2197,504,7,134899,116262
2199,500,7,134892,116264
2202,498,7,134894,116260
2204,498,7,134890,116267
2207,497,7,134896,116252
2209,494,7,134890,116262
2212,495,7,134883,116270
2214,497,7,134897,116251
2217,502,7,134893,116251
2220,507,7,134893,116260
2222,509,7,134893,116261
2225,511,7,134885,116257
2227,511,7,134883,116257
2230,512,7,134894,116258
2232,510,7,134897,116263
2235,510,7,134897,116277
2237,509,7,134909,116259
2239,506,7,134901,116259
2242,503,7,134916,116264
2244,503,7,134916,116272
2247,503,7,134909,116277
2249,500,7,134920,116277
2252,496,7,134929,116274
2254,496,7,134929,116270
2257,499,7,134924,116268
2259,500,7,134931,116273
2262,498,7,134949,116273
2265,496,7,134952,116276
2267,504,7,134952,116279
2270,512,7,134967,116285
2272,513,7,134970,116279
2275,512,7,134979,116284
2277,510,7,134979,116294
2279,510,7,134989,116304
2282,509,7,135008,116297
2284,507,7,135008,116304
2287,510,7,135022,116306
2289,510,7,135028,116305
2292,512,7,135043,116307
2294,514,7,135047,116307
2297,515,7,135050,116310
2299,507,7,135050,116323
2301,505,7,135064,116324
2305,509,7,135082,116323
2307,507,7,135092,116336
2310,508,7,135092,116329
2312,511,7,135103,116329
2315,510,7,135121,116342
2317,507,7,135121,116341
2319,511,7,135128,116350
2322,511,7,135141,116350
2324,510,7,135159,116346
2327,509,7,135163,116366
2329,510,7,135172,116366
2332,513,7,135190,116367
2334,520,7,135190,116367
2337,513,7,135198,116367
2339,503,8,135186,116383
2341,497,7,135186,116376
2344,500,7,135198,116376
2347,503,7,135243,116380
2350,506,7,135243,116384
2352,505,7,135239,116395
2355,500,7,135258,116386
2357,492,7,135269,116394
2359,494,7,135269,116392
2362,498,7,135284,116392
2364,499,7,135290,116398
2367,502,7,135290,116403
2369,503,7,135294,116406
2372,500,7,135307,116406
2374,493,7,135315,116406
2377,494,7,135315,116404
2379,497,7,135294,116404
2381,498,7,135325,116412
2384,496,7,135325,116408
2386,500,7,135332,116411
2390,501,7,135332,116411
2392,507,7,135332,116419
2395,509,7,135341,116419
2397,512,7,135357,116417
2399,514,7,135357,116420
2402,513,7,135356,116428
2404,518,7,135362,116428
2407,523,7,135371,116431
2409,524,7,135379,116431
2412,523,7,135379,116441
2414,521,7,135377,116438
2417,516,7,135397,116438
2419,511,7,135397,116444
2421,503,7,135401,116439
2424,504,7,135398,116439
2426,506,7,135398,116443
2429,512,7,135398,116446
2432,513,7,135416,116447
2435,515,7,135408,116447
2437,517,7,135407,116453
2439,520,7,135410,116449
2442,515,7,135413,116450
2444,514,7,135429,116450
2447,516,7,135430,116452
2449,518,7,135434,116457
2452,517,7,135427,116447
2454,513,7,135452,116462
2457,507,7,135458,116462
2459,508,7,135458,116456
2461,512,8,135458,116450
2464,513,7,135454,116460
2466,512,7,135453,116461
2469,512,7,135459,116468
2471,513,7,135470,116460
2475,516,7,135464,116469
2477,513,7,135469,116466
2479,507,7,135475,116468
2482,503,7,135485,116473
2484,501,7,135484,116470
2487,499,7,135490,116469
2489,498,7,135487,116476
2492,496,7,135499,116476
2494,498,7,135499,116480
2497,502,7,135504,116480
2499,511,7,135513,116479
2501,516,7,135523,116491
2504,515,7,135511,116488
2506,509,7,135521,116485
2509,502,7,135521,116490
2511,502,7,135542,116490
2514,505,7,135529,116490
2516,504,7,135522,116488
2519,500,7,135543,116487
2522,504,7,135534,116491
2524,509,7,135546,116500
2527,510,7,135554,116503
2529,512,7,135547,116499
2532,513,7,135558,116495
2534,508,7,135570,116501
2537,506,7,135568,116510
2539,507,7,135570,116502
2541,505,7,135584,116508
2544,499,7,135589,116510
2546,496,7,135592,116514
2549,496,7,135595,116513
2551,495,7,135605,116514
2554,494,7,135612,116515
2556,493,7,135610,116517
2558,496,7,135607,116522
2562,497,7,135622,116522
2564,498,7,135633,116527
2567,500,7,135641,116534
2569,500,7,135635,116533
2572,502,7,135644,116540
2574,504,7,135650,116529
2577,503,7,135653,116536
2579,501,7,135656,116544
2581,502,7,135664,116537
2584,503,7,135676,116551
2586,502,7,135674,116549
2589,504,7,135695,116551
2591,506,7,135695,116565
2594,503,7,135714,116561
2596,501,7,135710,116557
2598,507,7,135724,116560
2601,509,7,135728,116562
2604,510,7,135738,116569
2607,511,7,135738,116574
2609,509,7,135742,116582
2612,508,7,135758,116581
2614,506,7,135757,116585
2617,513,7,135776,116577
2619,514,7,135779,116591
2621,513,7,135787,116595
2624,512,7,135785,116597
2626,509,7,135801,116600
2629,509,7,135801,116604
2631,506,7,135821,116609
2634,511,7,135825,116603
2636,515,7,135821,116613
2638,519,7,135838,116608
2641,518,7,135847,116614
2643,515,7,135852,116615
2647,514,7,135861,116620
2649,512,7,135866,116626
2652,513,7,135871,116630
2654,520,7,135882,116628
2657,534,7,135888,116630
2659,550,7,135902,116619
2661,566,7,135900,116634
2664,584,7,135904,116641
2666,597,7,135917,116640
2669,603,7,135917,116647
2671,606,7,135926,116643
2674,601,7,135941,116648
2676,588,7,135950,116650
2678,568,7,135950,116647
2681,540,7,135963,116655
2683,521,8,135978,116668
2686,501,7,135972,116667
2689,478,7,135984,116669
2692,468,7,135994,116669
2694,469,7,136011,116682
2697,474,7,136007,116682
2699,483,7,136017,116688
2701,487,7,136017,116678
2704,492,7,136030,116684
2706,495,7,136041,116694
2709,496,7,136056,116694
2711,497,7,136064,116708
2714,498,7,136064,116721
2716,499,7,136081,116703
2718,496,7,136084,116703
2721,493,7,136101,116718
2723,493,7,136101,116729
2726,493,7,136117,116736
2728,491,7,136115,116736
2732,488,7,136127,116726
2734,488,7,136127,116731
2737,491,7,136139,116740
2739,493,7,136152,116738
2741,492,7,136164,116738
2744,490,7,136177,116749
2746,498,7,136180,116739
2749,503,7,136185,116754
2751,514,7,136185,116752
2754,520,7,136196,116759
2756,519,7,136216,116756
2758,516,7,136229,116756
2761,512,7,136232,116773
2763,508,7,136232,116766
2766,506,7,136251,116779
2768,502,7,136263,116779
2771,498,7,136269,116777
2774,492,7,136269,116784
2777,489,7,136277,116786
2779,486,7,136293,116789
2781,483,7,136293,116793
2784,487,7,136311,116797
2786,490,7,136316,116802
2789,494,7,136316,116804
2791,500,7,136331,116804
2794,501,7,136354,116803
2796,502,7,136354,116813
2798,508,7,136353,116822
2801,510,7,136368,116814
2803,510,7,136368,116818
2806,516,7,136375,116822
2808,516,7,136393,116832
2811,518,7,136394,116829
2813,520,7,136409,116829
2817,520,7,136404,116839
2819,520,7,136404,116838
2821,519,7,136408,116837
2824,522,7,136421,116837
2826,522,7,136440,116839
2829,513,7,136440,116835
2831,512,7,136433,116846
2834,512,7,136454,116846
2836,508,7,136435,116849
2838,503,7,136459,116843
2841,495,7,136459,116848
2843,497,7,136461,116843
2846,499,7,136469,116843
2848,501,7,136473,116857
2851,506,7,136473,116853
2853,509,7,136467,116853
2856,523,7,136467,116849
2859,526,7,136426,116849
2861,524,7,136460,116849
2864,516,7,136460,116839
2866,517,7,136446,116829
2869,517,8,136419,116829
2871,513,7,136389,116818
2874,513,7,136389,116793
2876,513,7,136342,116772
2878,514,7,136305,116772
2881,520,7,136208,116762
2883,522,7,136208,116709
2886,522,7,136148,116679
2888,526,7,136077,116650
2891,532,7,136007,116626
2893,537,7,135927,116594
2896,543,7,135842,116594
2898,545,7,135674,116556
2900,545,7,135674,116530
2904,535,7,135583,116475
2906,534,7,135513,116446
2909,532,7,135344,116446
2911,532,7,135344,116395
2914,533,7,135294,116395
2916,535,7,135218,116370
2918,535,7,135161,116339
2921,530,7,135140,116318
2923,529,7,135078,116318
2926,530,7,135045,116305
2928,532,7,135007,116291
2931,527,7,135003,116261
2933,522,7,134967,116261
2936,520,7,134917,116254
2938,518,7,134897,116249
2940,514,8,134884,116233
2944,510,7,134856,116219
2946,504,7,134835,116202
2949,499,7,134826,116202
2951,493,7,134777,116199
2954,495,7,134780,116194
2956,499,7,134743,116191
2958,501,7,134743,116176
2961,503,7,134732,116175
2963,506,7,134719,116165
2966,502,7,134720,116163
2968,487,7,134712,116164
2971,480,7,134705,116160
2973,475,7,134700,116157
2976,472,7,134698,116154
2978,468,7,134694,116152
2980,471,7,134688,116159
2983,477,7,134690,116152
2985,476,7,134684,116155
2989,473,7,134682,116156
2991,471,7,134691,116150
2994,469,7,134691,116153
2996,466,7,134687,116153
2998,464,7,134683,116152
3001,465,7,134695,116151
3003,466,7,134704,116149
3006,468,7,134713,116156
3008,474,7,134701,116154
3011,488,7,134712,116152
3013,489,7,134717,116158
3016,490,7,134719,116170
3018,491,7,134724,116154
3020,490,7,134736,116161
3023,490,7,134734,116158
3025,491,7,134739,116162
3028,492,7,134740,116163
3031,491,7,134746,116165
3034,489,7,134755,116169
3036,492,7,134751,116171
3038,493,7,134763,116171
3041,494,7,134756,116169
3043,493,7,134763,116167
3046,496,7,134759,116175
3048,497,7,134763,116171
3051,501,7,134765,116170
3053,504,7,134763,116171
3056,506,7,134762,116165
3058,506,7,134753,116168
3060,507,7,134758,116171
3063,508,7,134756,116161
3065,508,7,134763,116165
3068,510,7,134744,116159
3070,508,7,134746,116153
3074,512,7,134741,116160
3076,514,7,134739,116156
3078,514,7,134746,116157
3081,515,7,134733,116157
3083,512,7,134733,116153
3086,512,7,134731,116153
3088,510,7,134727,116155
3091,514,7,134724,116150
3093,519,7,134718,116145
3096,523,7,134717,116149
3098,521,7,134714,116150
3100,517,7,134728,116151
3103,516,7,134713,116149
3105,516,7,134719,116143
3108,515,7,134733,116149
3110,512,7,134728,116152
3113,512,7,134736,116145
3116,512,7,134746,116147
3118,512,7,134735,116152
3121,511,7,134751,116157
3123,511,7,134755,116153
3126,517,7,134759,116159
3128,519,7,134769,116163
3131,517,7,134765,116165
3133,516,7,134782,116167
3136,517,7,134778,116170
3138,514,7,134781,116174
3140,514,7,134796,116173
3143,513,7,134797,116178
3145,511,7,134803,116170
3148,511,7,134797,116170
3150,509,7,134808,116172
3153,508,7,134807,116163
3155,505,7,134818,116177
3158,498,7,134819,116184
3161,497,7,134809,116181
3163,497,7,134827,116172
3166,496,7,134826,116175
3168,492,7,134809,116179
3171,492,7,134820,116179
3173,494,7,134825,116178
3176,498,7,134820,116178
3178,504,7,134817,116179
3180,506,7,134818,116179
3183,510,7,134820,116183
3185,512,7,134810,116173
3188,511,7,134804,116175
3190,510,7,134811,116174
3193,510,7,134811,116160
3195,509,7,134811,116170
3197,508,7,134801,116170
3201,506,7,134810,116174
3203,503,7,134810,116168
3206,498,7,134809,116165
3208,493,7,134795,116167
3211,490,7,134797,116167
3213,492,7,134793,116160
3216,490,7,134793,116177
3218,489,7,134785,116162
3220,487,7,134787,116162
3223,485,7,134778,116165
3225,493,7,134783,116155
3228,499,7,134777,116167
3230,513,7,134780,116158
3233,518,7,134780,116159
3235,519,7,134778,116165
3237,512,7,134770,116161
3240,506,7,134782,116154
3243,504,7,134777,116154
3246,498,7,134789,116159
3248,499,7,134789,116157
3251,504,7,134786,116162
3253,506,7,134788,116162
3256,505,7,134785,116156
3258,503,7,134785,116163
3260,503,7,134787,116158
3263,502,7,134795,116166
3265,499,7,134800,116166
3268,498,7,134801,116166
3270,499,7,134801,116164
3273,501,7,134806,116169
3275,503,7,134812,116169
3277,502,7,134829,116167
3280,496,7,134829,116164
3282,498,7,134825,116178
3286,499,7,134833,116178
3288,501,7,134845,116176
3291,504,7,134857,116178
3293,505,7,134857,116187
3296,510,7,134862,116185
3298,512,7,134863,116185
3300,508,7,134884,116180
3303,500,7,134895,116189
3305,497,7,134896,116189
3308,494,7,134906,116196
3310,496,7,134906,116200
3313,496,7,134912,116204
3315,494,7,134929,116204
3317,489,7,134937,116211
3320,492,7,134937,116212
3322,494,7,134954,116214
3325,493,7,134937,116214
3328,487,7,134937,116224
3331,493,7,134984,116228
3333,495,7,134996,116228
3336,497,7,135009,116232
3338,502,7,135009,116236
3340,505,7,135015,116239
3343,505,7,135033,116247
3345,507,7,135033,116248
3348,514,7,135056,116248
3350,522,7,135070,116256
3353,526,7,135070,116267
3355,517,7,135076,116273
3357,510,7,135084,116273
3360,499,7,135084,116271
3362,501,7,135108,116275
3365,503,7,135123,116275
3367,500,7,135123,116287
3371,504,7,135135,116287
3373,507,8,135156,116287
3376,512,7,135156,116296
3378,511,7,135156,116291
3380,511,7,135158,116291
3383,514,7,135199,116301
3385,515,7,135199,116306
3388,515,7,135187,116308
3390,518,7,135189,116301
3393,523,7,135193,116307
3395,527,7,135198,116311
3397,531,7,135210,116311
3400,532,7,135238,116309
3402,531,7,135238,116320
3405,528,7,135221,116324
3407,525,7,135235,116326
3410,526,7,135239,116322
3412,527,7,135245,116330
3416,527,7,135244,116330
3418,528,7,135276,116325
3420,527,7,135276,116330
3423,524,7,135258,116335
3425,515,7,135270,116338
3428,514,7,135281,116336
3430,510,7,135271,116339
3433,507,7,135276,116338
3435,499,7,135294,116347
3437,496,7,135305,116346
3440,494,7,135290,116345
3442,493,7,135309,116343
3445,492,7,135313,116347
3447,494,7,135304,116350
3450,496,7,135309,116349
3452,497,7,135309,116347
3456,497,7,135319,116347
3458,494,7,135328,116363
3460,492,7,135333,116353
3463,492,7,135332,116363
3465,492,7,135328,116358
3468,493,7,135340,116356
3470,493,7,135348,116363
3473,494,7,135361,116358
3475,503,7,135361,116364
3477,504,7,135343,116361
3480,504,7,135348,116372
3482,505,7,135357,116369
3485,503,7,135360,116360
3487,507,7,135374,116365
3490,511,7,135366,116376
3492,514,7,135372,116370
3495,518,7,135374,116370
3497,519,7,135381,116363
3500,518,7,135389,116370
3503,526,7,135385,116378
3505,533,7,135389,116376
3508,534,7,135391,116375
3510,535,7,135390,116375
3513,536,7,135396,116378
3515,532,7,135403,116385
3517,526,7,135414,116379
3520,524,7,135415,116386
3522,521,7,135417,116391
3525,521,7,135419,116391
3527,519,7,135421,116393
3530,520,7,135428,116392
3532,523,7,135440,116391
3535,526,7,135443,116392
3537,523,7,135449,116398
3539,520,7,135438,116399
3543,518,7,135451,116393
3545,516,7,135447,116398
3548,512,7,135453,116396
3550,508,7,135461,116399
3553,506,7,135469,116409
3555,505,7,135474,116408
3557,503,7,135490,116413
3560,502,7,135477,116411
3562,503,7,135478,116415
3565,503,7,135493,116414
3567,504,7,135497,116418
3570,505,7,135503,116422
3572,498,7,135506,116427
3575,497,7,135526,116422
3577,501,7,135526,116430
3579,505,7,135539,116436
3582,502,7,135543,116437
3585,497,7,135544,116445
3588,503,7,135552,116443
3590,506,7,135564,116443
3593,504,7,135567,116454
3595,492,7,135573,116453
3597,493,7,135586,116455
3600,494,7,135591,116459
3602,497,7,135609,116461
3605,501,7,135607,116472
3607,505,7,135615,116473
3610,509,7,135619,116468
3612,519,7,135629,116482
3615,522,7,135635,116482
3617,519,7,135640,116480
3619,516,7,135661,116485
3622,514,7,135656,116490
3624,512,7,135655,116489
3628,510,7,135665,116489
3630,508,7,135679,116493
3633,507,7,135679,116496
3635,512,7,135698,116486
3637,517,7,135703,116508
3640,507,7,135710,116510
3642,504,7,135725,116511
3645,508,7,135722,116508
3647,510,7,135739,116518
3650,510,7,135737,116518
3652,511,7,135758,116516
3655,510,7,135759,116516
3657,504,7,135772,116528
3659,503,7,135775,116528
3662,507,7,135785,116531
3664,509,7,135782,116532
3667,509,7,135789,116537
3670,509,7,135799,116537
3673,510,7,135799,116542
3675,509,7,135818,116540
3677,508,7,135823,116540
3680,507,7,135841,116550
3682,503,7,135844,116546
3685,499,7,135844,116548
3687,494,7,135861,116560
3690,496,7,135858,116566
3692,502,7,135865,116568
3695,511,7,135879,116568
3697,534,7,135893,116572
3699,550,7,135893,116571
3702,578,7,135891,116586
3704,595,7,135906,116586
3707,616,7,135917,116584
3709,617,7,135917,116581
3713,615,7,135918,116586
3715,605,7,135933,116588
3717,594,7,135943,116588
3720,564,7,135960,116607
3722,547,7,135960,116605
3725,524,7,135964,116605
3727,505,7,135975,116605
3730,484,7,135982,116602
3732,471,7,135982,116609
3735,473,7,135996,116614
3737,474,7,136004,116621
3739,473,7,136004,116626
3742,478,7,136022,116626
3744,482,7,136035,116640
3747,487,7,136035,116628
3749,493,7,136049,116628
3752,495,7,136066,116635
3755,494,7,136066,116641
3757,498,8,136064,116640
3760,498,7,136083,116640
3762,498,7,136098,116650
3765,497,7,136101,116656
3767,498,7,136110,116656
3770,500,7,136122,116661
3772,507,7,136122,116662
3775,502,7,136125,116669
3777,494,7,136141,116675
3779,489,7,136141,116670
3782,488,7,136170,116678
3784,486,7,136167,116678
3787,484,7,136184,116687
3789,490,8,136184,116692
3792,495,7,136191,116697
3794,494,7,136201,116700
3796,497,7,136201,116697
3800,500,7,136221,116697
3802,500,7,136242,116700
3805,498,7,136242,116706
3807,497,7,136246,116722
3810,493,7,136260,116722
3812,486,7,136273,116724
3815,485,7,136273,116726
3817,487,7,136256,116726
3819,487,7,136304,116728
3822,485,7,136304,116733
3824,489,7,136307,116741
3827,490,7,136320,116741
3829,494,7,136320,116743
3832,497,7,136330,116745
3834,496,7,136341,116745
3836,490,7,136357,116748
3840,491,7,136357,116758
3842,492,7,136364,116753
3845,490,7,136371,116753
3847,483,7,136371,116759
3850,488,7,136388,116759
3852,492,7,136415,116769
3855,498,7,136415,116778
3857,497,7,136407,116777
3859,499,7,136412,116777
3862,503,7,136430,116783
3864,505,7,136434,116781
3867,506,7,136434,116785
3869,509,7,136438,116787
3872,507,7,136456,116798
3874,508,7,136458,116797
3876,514,7,136462,116797
3879,517,7,136485,116805
3881,520,7,136485,116796
3885,518,7,136476,116799
3887,518,7,136482,116806
3890,520,7,136480,116805
3892,522,7,136491,116808
3895,525,7,136487,116808
3897,526,7,136514,116805
3899,526,7,136514,116807
3902,523,7,136483,116801
3904,517,7,136481,116803
3907,516,7,136492,116799
3909,513,7,136456,116784
3912,510,7,136444,116779
3914,507,7,136420,116758
3916,502,7,136394,116758
3919,503,7,136345,116738
3921,508,7,136304,116697
3924,509,7,136268,116697
3927,509,7,136195,116648
3930,511,7,136134,116648
3932,520,7,136053,116617
3935,525,7,135993,116585
3937,530,7,135896,116554
3939,534,7,135805,116522
3942,532,7,135722,116480
3944,524,7,135637,116452
3947,520,7,135536,116421
3949,517,7,135450,116391
3952,516,7,135366,116361
3954,513,7,135286,116339
3956,511,7,135223,116316
3959,511,7,135165,116293
3961,511,7,135108,116271
3964,510,7,135064,116252
3966,516,7,135027,116234
3970,519,7,134971,116230
3972,522,7,134940,116206
3975,527,7,134918,116187
3977,526,7,134889,116173
3979,522,7,134863,116172
3982,524,7,134820,116162
3984,527,7,134808,116156
3987,526,7,134792,116151
3989,525,7,134772,116135
3992,524,7,134745,116129
3994,516,7,134739,116124
3996,509,7,134726,116111
3999,502,7,134712,116107
4001,501,7,134690,116107
4004,500,7,134688,116108
4006,499,7,134664,116101
4009,498,7,134660,116088
4012,493,7,134654,116088
4015,491,7,134651,116087
4017,490,7,134645,116081
4019,487,7,134648,116079
4022,484,7,134641,116084
4024,482,7,134650,116090
4027,481,7,134643,116079
4029,479,7,134648,116080
4032,477,7,134654,116080
4034,479,7,134646,116086
4036,479,7,134647,116086
4039,480,7,134658,116085
4041,479,7,134665,116086
4044,481,7,134649,116084
4046,482,7,134660,116089
4049,486,7,134672,116091
4051,491,7,134671,116091
4055,496,7,134675,116101
4057,496,7,134691,116096
4059,493,7,134698,116098
4062,494,7,134696,116105
4064,493,7,134707,116099
4067,492,7,134708,116108
4069,490,7,134717,116105
4072,491,7,134721,116101
4074,491,7,134722,116105
4076,490,7,134731,116114
4079,490,7,134733,116112
4081,492,7,134735,116116
4084,493,7,134741,116092
4086,490,7,134750,116120
4089,482,7,134740,116115
4091,481,7,134750,116121
4094,483,7,134756,116097
4097,481,7,134754,116115
4099,476,7,134758,116115
4102,479,7,134750,116123
4104,482,7,134753,116093
4107,482,7,134762,116127
4109,478,7,134753,116126
4112,479,7,134757,116120
4114,484,7,134749,116117
4116,490,7,134748,116108
4119,493,7,134747,116114
4121,496,7,134745,116108
4124,499,7,134740,116111
4126,503,7,134751,116114
4129,504,7,134751,116115
4131,505,7,134748,116103
4134,507,7,134744,116111
4136,500,7,134754,116111
4139,502,7,134754,116106
4142,503,7,134756,116114
4144,505,7,134751,116104
4147,507,7,134759,116104
4149,508,7,134771,116118
4152,509,7,134771,116127
4154,508,7,134779,116124
4156,505,7,134776,116124
4159,505,7,134789,116123
4161,506,7,134791,116134
4164,505,7,134802,116121
4166,502,7,134805,116127
4169,502,7,134809,116145
4171,504,7,134817,116132
4174,508,7,134818,116132
4176,513,7,134820,116134
4178,515,7,134820,116130
4182,518,7,134828,116151
4184,514,7,134831,116140
4187,511,7,134840,116141
4189,511,7,134836,116136
4192,511,7,134836,116142
4194,511,7,134838,116136
4196,510,7,134841,116136
4199,510,7,134852,116139
4201,507,7,134852,116148
4204,505,7,134847,116141
4206,502,7,134847,116141
4209,500,7,134859,116141
4211,503,7,134859,116146
4214,501,7,134850,116144
4216,498,7,134844,116143
4218,496,7,134844,116145
4221,497,7,134835,116142
4224,499,7,134842,116148
4227,503,7,134842,116137
4229,508,7,134835,116137
4232,510,7,134837,116129
4234,509,7,134837,116130
4236,514,7,134831,116136
4239,514,7,134822,116130
4241,513,7,134822,116130
4244,516,7,134812,116129
4246,515,7,134809,116131
4249,516,7,134821,116124
4251,518,7,134799,116124
4254,519,7,134817,116121
4256,518,7,134817,116123
4258,517,7,134796,116122
4261,514,7,134788,116118
4263,513,7,134786,116118
4267,513,7,134788,116112
4269,512,7,134788,116115
4272,517,7,134790,116111
4274,517,7,134789,116111
4276,514,7,134787,116111
4279,512,7,134787,116111
4281,513,7,134790,116108
4284,512,7,134786,116108
4286,510,7,134803,116107
4289,509,7,134803,116107
4291,510,7,134792,116107
4294,519,7,134792,116108
4296,521,7,134766,116108
4298,518,7,134804,116111
4301,510,7,134804,116109
4303,510,7,134801,116117
4306,511,7,134812,116117
4308,505,7,134812,116118
4312,500,7,134826,116117
4314,497,7,134826,116117
4316,492,7,134836,116122
4319,496,7,134836,116123
4321,499,7,134843,116128
4324,498,7,134847,116128
4326,492,7,134847,116135
4329,497,7,134860,116135
4331,501,7,134872,116131
4334,507,7,134872,116134
4336,507,7,134875,116141
4338,508,7,134887,116141
4341,513,8,134904,116143
4343,514,7,134908,116154
4346,514,7,134908,116156
4348,520,7,134919,116171
4352,525,7,134928,116171
4354,526,7,134940,116163
4356,518,7,134940,116165
4359,518,7,134960,116165
4361,519,7,134976,116179
4364,521,7,134976,116181
4366,520,7,134979,116181
4369,519,7,135001,116181
4371,521,7,135001,116201
4374,522,7,135026,116201
4376,522,7,135039,116199
4378,522,7,135039,116209
4381,520,7,135050,116207
4383,520,7,135057,116207
4386,523,7,135077,116210
4388,524,7,135106,116220
4391,521,8,135106,116223
4393,517,8,135096,116230
4396,511,7,135114,116230
4399,512,7,135121,116234
4401,511,7,135154,116239
4404,507,7,135160,116246
4406,504,7,135155,116241
4409,501,7,135154,116250
4411,507,7,135172,116250
4414,512,7,135173,116250
4416,514,7,135172,116252
4418,512,7,135206,116255
4421,510,7,135206,116257
4423,517,7,135205,116269
4426,518,7,135225,116264
4428,520,7,135226,116270
4431,522,7,135234,116272
4433,518,7,135247,116281
4435,513,7,135246,116277
4439,509,7,135259,116288
4441,506,7,135272,116280
4444,507,7,135286,116293
4446,514,7,135286,116287
4449,517,7,135278,116289
4451,519,7,135298,116298
4454,522,7,135293,116297
4456,519,7,135313,116291
4458,515,7,135304,116304
4461,512,7,135316,116304
4463,511,7,135321,116304
4466,509,7,135323,116301
4468,508,7,135335,116303
4471,512,7,135342,116303
4473,515,7,135344,116304
4475,520,7,135339,116320
4478,523,7,135351,116309
4481,524,7,135348,116310
4484,528,7,135356,116313
4486,526,7,135370,116325
4489,525,7,135374,116327
4491,525,7,135378,116325
4494,522,7,135380,116320
4496,518,7,135390,116324
4498,517,7,135389,116327
4501,517,7,135392,116323
4503,517,7,135389,116329
4506,518,7,135392,116336
4508,520,7,135396,116335
4511,518,7,135402,116336
4513,515,7,135404,116336
4515,518,7,135404,116340
4518,523,7,135399,116339
4520,524,7,135415,116338
4524,523,7,135418,116338
4526,521,7,135408,116343
4529,521,7,135427,116334
4531,521,7,135429,116344
4534,519,7,135426,116340
4536,516,7,135419,116342
4538,515,7,135426,116341
4541,513,7,135433,116340
4543,510,7,135431,116348
4546,512,7,135431,116330
4548,513,7,135435,116351
4551,510,7,135452,116345
4553,504,7,135439,116353
4555,509,7,135454,116354
4558,510,7,135456,116353
4560,509,7,135466,116361
4563,509,7,135458,116357
4566,507,7,135466,116359
4569,507,7,135469,116359
4571,503,7,135475,116366
4574,507,7,135479,116369
4576,514,7,135487,116370
4578,515,7,135497,116370
4581,510,7,135491,116372
4583,504,7,135499,116381
4586,502,7,135504,116350
4588,498,7,135500,116377
4591,492,7,135523,116386
4593,484,7,135532,116383
4595,483,7,135515,116377
4598,484,7,135524,116379
4600,481,7,135532,116386
4603,482,7,135534,116390
4605,483,7,135548,116389
4609,487,7,135549,116386
4611,487,7,135551,116394
4614,492,7,135561,116383
4616,493,7,135571,116396
4618,490,7,135575,116405
4621,490,7,135585,116407
4623,490,7,135598,116411
4626,488,7,135593,116405
4628,484,7,135599,116410
4631,482,7,135598,116410
4633,485,7,135614,116418
4635,489,7,135617,116420
4638,492,7,135622,116417
4640,491,7,135631,116424
4643,485,7,135642,116420
4645,488,7,135649,116420
4648,494,7,135649,116441
4651,500,7,135659,116433
4654,497,7,135668,116428
4656,498,7,135669,116435
4658,504,7,135674,116435
4661,513,7,135685,116441
4663,510,7,135685,116462
4666,506,7,135692,116443
4668,502,7,135705,116443
4671,497,7,135713,116456
4673,495,7,135721,116460
4675,498,7,135721,116467
4678,500,7,135732,116457
4680,500,7,135747,116457
4683,498,7,135757,116470
4685,500,7,135757,116472
4688,504,7,135759,116480
4690,507,7,135776,116480
4694,508,7,135797,116480
4696,508,7,135790,116489
4698,509,7,135790,116482
4701,515,7,135802,116491
4703,518,7,135805,116491
4706,516,7,135820,116488
4708,511,7,135820,116494
4711,510,7,135826,116511
4713,508,7,135844,116511
4715,504,7,135856,116515
4718,504,7,135864,116510
4720,507,7,135868,116510
4723,522,7,135877,116515
4725,534,7,135877,116517
4728,558,7,135884,116526
4730,573,7,135893,116526
4733,585,7,135910,116525
4736,603,7,135910,116531
4738,605,7,135910,116541
4741,600,7,135924,116541
4743,589,7,135937,116543
4746,565,7,135938,116540
4748,552,7,135938,116547
4751,536,7,135955,116553
4753,522,7,135961,116553
4755,504,7,135977,116558
4758,473,7,135977,116563
4760,465,7,135981,116559
4763,468,7,135995,116559
4765,473,7,136009,116566
4768,472,7,136009,116570
4770,475,7,136019,116570
4773,481,7,136034,116569
4775,494,7,136034,116582
4777,498,7,136035,116587
4781,497,7,136048,116587
4783,495,7,136069,116591
4786,494,7,136069,116591
4788,495,7,136063,116596
4791,495,7,136049,116596
4793,492,7,136101,116601
4795,487,7,136105,116612
4798,486,7,136105,116615
4800,487,7,136117,116618
4803,485,7,136092,116618
4805,480,7,136148,116622
4808,482,7,136148,116623
4810,484,7,136147,116629
4813,483,7,136119,116629
4815,480,7,136177,116631
4817,482,7,136177,116635
4820,486,7,136185,116647
4823,492,7,136193,116656
4826,499,7,136203,116657
4828,505,7,136210,116654
4831,509,7,136224,116654
4833,512,7,136239,116661
4835,513,7,136239,116663
4838,506,7,136244,116669
4840,504,7,136247,116669
4843,507,7,136278,116667
4845,509,7,136273,116680
4848,509,7,136273,116690
4850,507,7,136289,116691
4853,515,7,136299,116691
4855,521,7,136325,116690
4857,524,7,136325,116693
4860,519,7,136322,116704
4862,520,7,136341,116699
4866,520,7,136336,116699
4868,520,7,136345,116710
4871,523,7,136354,116704
4873,521,7,136361,116718
4875,518,7,136367,116718
4878,519,7,136381,116721
4880,523,7,136377,116726
4883,523,7,136403,116726
4885,525,7,136394,116727
4888,528,7,136408,116732
4890,528,7,136410,116736
4893,535,7,136418,116736
4895,540,7,136435,116738
4897,544,7,136435,116737
4900,544,7,136435,116748
4902,542,7,136443,116751
4905,541,7,136450,116750
4908,543,7,136461,116751
4911,546,7,136456,116757
4913,543,7,136475,116749
4915,539,7,136484,116763
4918,535,7,136493,116772
4920,534,7,136484,116763
4923,533,7,136498,116772
4925,531,7,136500,116768
4928,529,7,136507,116771
4930,528,7,136498,116771
4933,527,7,136506,116763
4935,528,7,136501,116759
4937,534,7,136497,116757
4940,538,7,136468,116759
4942,540,7,136474,116747
4945,543,7,136448,116732
4947,540,7,136408,116719
4951,536,7,136372,116707
4953,533,7,136334,116687
4955,531,7,136291,116669
4958,531,7,136234,116645
4960,537,7,136179,116626
4963,540,7,136114,116596
4965,543,7,136036,116558
4968,546,7,135959,116537
4970,544,7,135865,116504
4973,538,7,135775,116468
4975,533,7,135695,116445
4977,533,7,135599,116409
4980,535,7,135499,116380
4982,534,7,135414,116340
4985,535,7,135334,116318
4987,536,7,135254,116293
4990,535,7,135204,116264
4993,533,7,135148,116248
4995,536,7,135080,116229
4998,537,7,135038,116209
5000,537,7,134998,116185
5003,535,7,134965,116176
5005,533,7,134918,116167
5008,535,7,134899,116159
5010,534,7,134869,116144
5013,528,7,134851,116135
5015,519,7,134814,116121
5017,513,7,134792,116119
5020,505,7,134776,116109
5022,500,7,134752,116100
5025,500,7,134749,116094
5027,498,7,134730,116088
5030,495,7,134711,116084
5032,489,7,134704,116080
5035,488,7,134709,116073
5038,486,7,134687,116064
5040,483,7,134686,116063
5043,482,7,134669,116064
5045,480,7,134669,116071
5048,479,7,134670,116064
5050,476,7,134661,116058
5053,481,7,134669,116058
5055,483,7,134667,116049
5057,477,7,134674,116063
5060,472,7,134665,116056
5062,477,7,134672,116058
5065,483,7,134665,116049
5067,487,7,134680,116066
5070,481,7,134683,116039
5072,473,7,134683,116067
5074,461,7,134681,116072
5078,457,7,134692,116073
5080,458,7,134704,116069
5083,463,7,134709,116076
5085,463,7,134722,116081
5088,465,7,134726,116055
5090,468,7,134729,116080
5093,466,7,134748,116065
5095,462,7,134743,116094
5097,456,7,134750,116094
5100,457,7,134759,116088
5102,460,7,134770,116082
5105,459,7,134773,116100
5107,455,7,134786,116098
5110,454,7,134790,116098
5112,460,7,134805,116109
5114,460,7,134805,116104
5117,458,7,134818,116113
5120,456,7,134821,116117
5123,456,7,134819,116117
5125,461,7,134826,116120
5128,465,7,134826,116114
5130,476,7,134830,116126
5133,482,7,134835,116126
5135,480,7,134841,116120
5137,479,7,134841,116118
5140,485,7,134845,116128
5142,488,7,134842,116115
5145,485,7,134849,116115
5147,481,7,134849,116121
5150,482,7,134849,116116
5152,481,7,134847,116122
5154,481,7,134848,116122
5157,483,7,134861,116120
5159,481,7,134861,116138
5163,479,7,134857,116142
5165,477,7,134856,116142
5168,474,7,134867,116123
5170,474,7,134867,116134
5173,479,7,134874,116130
5175,482,7,134888,116139
5177,481,7,134899,116139
5180,483,7,134915,116151
5182,485,7,134915,116157
5185,488,7,134912,116151
5187,488,7,134916,116151
5190,486,7,134941,116153
5192,487,7,134939,116159
5194,490,7,134950,116159
5197,494,7,134956,116163
5199,497,7,134956,116167
5202,507,7,134964,116159
5204,511,7,134966,116159
5208,510,7,134979,116169
5210,509,7,134979,116171
5213,512,7,134983,116173
5215,510,7,134983,116175
5217,506,7,134983,116174
5220,507,7,134983,116175
5222,508,7,134980,116181
5225,512,7,134980,116176
5227,517,7,134991,116176
5230,518,7,134986,116169
5232,518,7,134986,116173
5234,523,7,134989,116175
5237,523,7,134963,116168
5239,524,7,134963,116162
5242,525,7,134968,116170
5244,520,7,134955,116162
5248,520,7,134959,116161
5250,522,7,134940,116161
5253,522,7,134946,116160
5255,515,7,134946,116149
5257,514,7,134943,116154
5260,518,7,134909,116154
5262,520,7,134933,116149
5265,520,7,134933,116141
5267,519,7,134919,116139
5270,514,7,134911,116145
5272,505,7,134908,116146
5274,507,7,134908,116135
5277,512,7,134891,116135
5279,511,7,134892,116131
5282,513,7,134892,116134
5284,513,7,134888,116127
5287,510,7,134868,116127
5289,504,7,134875,116126
5293,503,7,134875,116125
5295,506,7,134840,116125
5297,505,7,134866,116121
5300,502,7,134866,116122
5302,506,7,134860,116120
5305,507,7,134862,116120
5307,504,7,134862,116130
5310,507,7,134870,116130
5312,513,7,134867,116121
5314,518,7,134867,116118
5317,512,7,134866,116124
5319,511,7,134864,116124
5322,513,7,134879,116122
5324,514,7,134883,116127
5327,513,7,134883,116136
5329,509,7,134884,116132
5332,514,7,134888,116132
5335,519,7,134896,116126
5337,521,7,134896,116130
5340,512,7,134900,116140
5342,512,7,134914,116144
5345,511,7,134924,116144
5347,511,7,134924,116152
5350,513,7,134939,116152
5352,514,7,134949,116155
5354,515,7,134949,116163
5357,513,7,134965,116163
5359,514,7,134972,116163
5362,517,7,135008,116170
5364,517,7,134998,116175
5367,515,7,134998,116177
5369,513,7,135013,116191
5372,512,7,135022,116185
5374,510,7,135036,116199
5377,509,7,135045,116193
5380,510,7,135055,116198
5382,504,7,135066,116200
5385,500,7,135086,116212
5387,496,7,135102,116214
5390,492,7,135111,116218
5392,487,7,135112,116227
5394,485,7,135131,116223
5397,484,7,135144,116231
5399,484,7,135152,116235
5402,484,7,135168,116236
5404,484,7,135187,116240
5407,482,7,135190,116250
5409,483,7,135197,116257
5412,488,7,135225,116258
5414,494,7,135232,116259
5416,503,7,135231,116265
5420,503,7,135241,116268
5422,498,7,135257,116275
5425,493,7,135273,116282
5427,489,7,135294,116282
5430,492,7,135308,116292
5432,499,7,135315,116287
5434,498,7,135303,116298
5437,496,7,135318,116302
5439,496,7,135322,116300
5442,499,7,135332,116296
5444,502,7,135346,116306
5447,503,7,135351,116308
5449,505,7,135356,116306
5452,508,7,135377,116313
5454,507,7,135376,116320
5456,506,7,135389,116320
5459,506,7,135395,116323
5462,508,7,135388,116325
5465,512,7,135405,116335
5467,516,7,135404,116335
5470,514,7,135413,116332
5472,511,7,135430,116338
5474,513,7,135427,116345
5477,518,7,135435,116335
5479,520,7,135447,116340
5482,519,7,135455,116343
5484,517,7,135444,116351
5487,517,7,135457,116357
5489,517,7,135451,116352
5492,514,7,135470,116357
5494,511,7,135461,116357
5496,510,7,135477,116350
5499,509,7,135492,116356
5501,507,7,135479,116364
5505,508,7,135492,116361
5507,509,7,135497,116360
5510,507,7,135495,116365
5512,504,7,135496,116367
5514,509,7,135511,116371
5517,510,7,135511,116362
5519,509,7,135517,116371
5522,509,7,135509,116369
5524,507,7,135521,116374
5527,507,7,135526,116379
5529,503,7,135528,116377
5532,506,7,135537,116376
5534,512,7,135537,116390
5536,513,7,135547,116384
5539,509,7,135547,116385
5541,504,7,135553,116389
5544,503,7,135551,116365
5547,501,7,135553,116386
5550,495,7,135575,116363
5552,489,7,135564,116389
5554,480,7,135566,116391
5557,477,7,135570,116397
5559,479,7,135575,116396
5562,483,7,135576,116398
5564,484,7,135593,116401
5567,489,7,135591,116400
5569,489,7,135597,116403
5572,495,7,135602,116396
5574,495,7,135608,116407
5576,496,7,135612,116406
5579,497,7,135604,116411
5581,496,7,135613,116407
5584,497,7,135624,116415
5586,494,7,135637,116419
5590,498,7,135633,116421
5592,507,7,135636,116426
5594,514,7,135647,116421
5597,512,7,135652,116432
5599,504,7,135652,116428
5602,487,7,135659,116431
5604,485,7,135671,116429
5607,483,7,135671,116432
5609,483,7,135668,116445
5612,483,7,135684,116445
5614,475,7,135684,116442
5616,474,7,135692,116442
5619,477,7,135690,116439
5621,479,7,135690,116443
5624,477,7,135691,116446
5626,477,7,135695,116446
5629,478,7,135695,116447
5632,477,7,135709,116454
5634,475,7,135716,116454
5637,473,7,135725,116451
5639,470,7,135725,116473
5642,467,7,135733,116455
5644,463,7,135735,116462
5647,461,7,135744,116462
5649,465,7,135753,116465
5652,464,7,135753,116465
5654,464,7,135760,116465
5656,463,7,135759,116465
5659,463,7,135768,116473
5661,465,7,135768,116481
5664,468,7,135776,116471
5666,467,7,135783,116471
5669,464,7,135802,116476
5671,463,7,135798,116477
5673,465,7,135810,116477
5677,467,7,135813,116493
5679,470,7,135813,116494
5682,478,7,135824,116495
5684,481,7,135833,116495
5687,480,7,135839,116494
5689,474,7,135839,116495
5692,470,7,135850,116503
5694,466,7,135856,116508
5696,463,7,135856,116507
5699,466,7,135876,116516
5701,467,7,135878,116515
5704,471,7,135894,116516
5706,477,7,135892,116516
5709,479,7,135903,116519
5711,478,7,135903,116528
5713,484,7,135908,116534
5716,485,7,135929,116537
5719,483,7,135929,116540
5722,488,7,135949,116540
5724,488,7,135952,116551
5727,490,7,135965,116559
5729,492,7,135973,116559
5732,492,7,135984,116556
5734,492,7,135984,116565
5736,490,7,135995,116560
5739,492,7,136008,116560
5741,492,7,136022,116569
5744,484,7,136022,116569
5746,485,7,136023,116572
5749,484,7,136040,116579
5751,484,7,136058,116579
5753,484,7,136053,116583
5756,485,7,136053,116592
5758,488,7,136065,116590
5762,488,7,136047,116590
5764,488,7,136099,116587
5767,505,7,136099,116603
5769,525,7,136105,116611
5772,538,7,136070,116611
5774,559,7,136070,116613
5776,568,7,136131,116608
5779,569,7,136123,116608
5781,566,7,136138,116618
5784,561,7,136138,116620
5786,557,7,136131,116620
5789,532,7,136131,116627
5791,510,7,136152,116630
5793,496,7,136181,116630
5796,484,7,136185,116632
5798,475,7,136189,116641
5801,471,7,136189,116641
5804,473,7,136199,116649
5807,472,7,136210,116649
5809,470,7,136231,116648
5812,475,7,136231,116655
5814,480,7,136231,116658
5816,484,7,136242,116658
5819,491,7,136260,116665
5821,494,7,136260,116665
5824,495,7,136264,116673
5826,500,7,136270,116675
5829,506,7,136270,116679
5831,511,7,136287,116686
5833,515,7,136299,116686
5836,517,7,136335,116688
5838,517,7,136335,116694
5841,515,7,136325,116698
5843,513,7,136326,116701
5847,514,7,136337,116706
5849,515,7,136340,116709
5852,516,7,136351,116709
5854,517,7,136376,116716
5856,518,7,136376,116717
5859,515,7,136384,116720
5861,507,7,136397,116728
5864,506,7,136403,116727
5866,504,7,136408,116738
5869,501,7,136416,116731
5871,496,7,136424,116738
5873,493,7,136453,116744
5876,490,7,136451,116747
5878,487,7,136466,116748
5881,485,7,136478,116752
5883,484,7,136481,116757
5886,491,7,136485,116770
5889,494,7,136496,116763
5892,494,7,136507,116771
5894,496,7,136511,116770
5896,492,7,136521,116777
5899,485,7,136529,116776
5901,480,7,136545,116783
5904,480,7,136561,116780
5906,496,7,136567,116789
5909,505,7,136550,116787
5911,510,7,136570,116798
5913,513,7,136578,116793
5916,518,7,136578,116799
5918,518,7,136590,116803
5921,520,7,136609,116806
5923,522,7,136609,116808
5926,525,7,136619,116813
5928,528,7,136629,116814
5932,534,7,136640,116814
5934,540,7,136643,116821
5936,546,7,136642,116826
5939,551,7,136652,116828
5941,551,7,136667,116832
5944,551,7,136657,116830
5946,550,7,136680,116835
5949,550,7,136686,116844
5951,553,7,136679,116833
5953,552,7,136688,116831
5956,550,7,136698,116844
5958,551,7,136701,116843
5961,553,7,136702,116850
5963,553,7,136702,116848
5966,555,7,136701,116850
5968,558,7,136700,116843
5971,557,7,136688,116843
5974,553,7,136696,116836
5976,553,7,136672,116833
5979,555,7,136656,116819
5981,556,7,136624,116808
5984,559,7,136594,116797
5986,560,7,136556,116782
5989,562,7,136519,116764
5991,567,7,136470,116746
5993,572,7,136410,116714
5996,573,7,136347,116691
5998,571,7,136271,116661
6001,572,7,136192,116624
6003,571,7,136104,116601
6006,570,7,136004,116560
6008,568,7,135908,116528
6011,568,7,135802,116488
6013,573,7,135711,116456
6016,575,7,135618,116421
6019,574,7,135517,116390
6021,572,7,135430,116340
6024,567,7,135352,116330
6026,561,7,135277,116305
6029,556,7,135210,116280
6031,558,7,135159,116260
6033,558,7,135107,116238
6036,560,7,135057,116217
6038,559,7,135021,116208
6041,560,7,134983,116194
6043,559,7,134957,116180
6046,563,7,134928,116166
6048,570,7,134897,116156
6051,573,7,134880,116156
6053,566,7,134858,116146
6055,561,8,134847,116129
6059,557,7,134825,116128
6061,552,7,134796,116114
6064,547,7,134792,116114
6066,541,7,134769,116097
6069,538,7,134769,116103
6071,540,7,134751,116087
6073,542,7,134736,116089
6076,529,7,134725,116084
6078,525,7,134728,116084
6081,528,7,134718,116077
6083,528,7,134711,116078
6086,526,7,134701,116079
6088,525,7,134715,116069
6091,526,7,134697,116069
6093,527,7,134701,116066
6095,526,7,134711,116073
6098,528,7,134712,116069
6100,528,7,134694,116065
6104,525,7,134710,116073
6106,524,7,134713,116068
6109,524,7,134713,116074
6111,522,7,134722,116070
6113,520,7,134724,116070
6116,518,7,134733,116075
6118,516,7,134733,116090
6121,512,7,134744,116067
6123,508,7,134742,116079
6126,507,7,134748,116080
6128,509,7,134751,116079
6131,513,7,134759,116079
6133,519,7,134761,116090
6135,522,7,134761,116087
6138,526,7,134772,116101
6140,524,7,134784,116101
6144,520,7,134787,116101
6146,519,7,134787,116101
6149,519,7,134788,116100
6151,518,7,134801,116100
6153,518,7,134797,116100
6156,520,7,134806,116106
6158,519,7,134806,116107
6161,518,7,134813,116103
6163,516,7,134802,116103
6166,514,7,134814,116106
6168,518,7,134814,116099
6171,517,7,134805,116102
6173,516,7,134800,116102
6175,515,7,134808,116092
6178,513,7,134799,116095
6180,512,7,134802,116095
6183,513,7,134798,116094
6185,520,7,134798,116092
6189,523,7,134801,116087
6191,524,7,134792,116087
6193,521,7,134792,116089
6196,522,7,134783,116087
6198,525,7,134783,116087
6201,527,7,134782,116081
6203,529,8,134777,116081
6206,532,7,134788,116092
6208,540,7,134788,116089
6211,537,7,134792,116092
6213,530,7,134801,116090
6215,524,7,134801,116093
6218,526,7,134800,116098
6220,528,7,134809,116098
6223,527,7,134813,116093
6225,526,7,134813,116099
6228,533,7,134818,116102
6231,534,7,134828,116102
6233,533,7,134840,116107
6236,534,7,134840,116110
6238,536,7,134839,116111
6241,535,7,134847,116111
6243,534,7,134859,116104
6246,534,7,134859,116113
6248,535,8,134863,116113
6251,544,7,134863,116108
6253,547,7,134833,116108
6255,544,7,134875,116116
6258,535,7,134875,116117
6260,535,7,134881,116116
6263,535,7,134880,116116
6265,528,7,134880,116118
6268,523,7,134880,116117
6270,520,8,134879,116117
6273,515,7,134888,116125
6276,518,7,134888,116118
6278,520,7,134879,116118
6281,519,7,134858,116118
6283,514,7,134858,116118
6286,519,7,134876,116118
6288,523,7,134882,116118
6291,528,7,134882,116108
6293,528,7,134871,116110
6295,529,7,134869,116110
6298,533,7,134861,116107
6300,534,7,134861,116103
6303,533,8,134856,116100
6305,536,8,134849,116104
6308,541,8,134851,116111
6310,545,7,134850,116108
6312,549,7,134845,116108
6316,551,7,134831,116100
6318,550,7,134831,116097
6321,538,7,134833,116095
6323,536,7,134829,116097
6326,537,8,134822,116097
6328,541,7,134822,116097
6331,541,7,134822,116097
6333,541,7,134840,116092
6335,541,7,134840,116092
6338,538,7,134820,116094
6340,538,7,134813,116094
6343,539,7,134817,116090
6345,539,7,134829,116094
6348,537,7,134829,116097
6350,532,7,134815,116093
6352,527,7,134799,116083
6355,528,7,134811,116091
6358,526,7,134830,116090
6361,522,7,134824,116099
6363,515,7,134830,116097
6366,513,7,134846,116093
6368,512,7,134827,116098
6371,511,7,134839,116088
6373,509,7,134846,116096
6375,514,7,134831,116096
6378,521,7,134841,116098
6380,520,7,134848,116098
6383,517,7,134856,116100
6385,515,7,134854,116105
6388,514,7,134863,116103
6390,513,7,134867,116109
6392,512,7,134877,116107
6395,512,7,134885,116117
6397,513,7,134886,116114
6401,513,7,134898,116117
6403,515,7,134896,116116
6406,514,7,134906,116119
6408,514,7,134911,116119
6411,514,7,134914,116124
6413,517,7,134928,116123
6415,523,7,134943,116135
6418,527,7,134951,116132
6420,529,7,134957,116135
6423,531,7,134976,116138
6425,532,7,134973,116137
6428,536,7,134975,116143
6430,539,7,134982,116147
6432,538,7,135003,116149
6435,537,7,134993,116152
6437,535,7,135016,116159
6440,534,7,135026,116158
6443,534,7,135023,116157
6446,532,7,135046,116170
6448,531,7,135058,116170
6451,532,7,135041,116181
6453,533,7,135065,116176
6455,533,7,135076,116181
6458,535,7,135083,116186
6460,533,7,135103,116184
6463,535,7,135105,116195
6465,536,7,135115,116194
6468,532,7,135124,116198
6470,522,7,135129,116199
6472,522,7,135147,116211
6475,523,7,135145,116199
6477,524,7,135157,116219
6480,527,7,135170,116216
6482,527,7,135176,116224
6486,529,7,135194,116224
6488,534,7,135192,116225
6491,537,7,135197,116237
6493,536,7,135207,116230
6495,532,7,135205,116237
6498,531,7,135220,116233
6500,530,7,135228,116240
6503,528,7,135221,116242
6505,526,7,135227,116244
6508,526,7,135247,116238
6510,525,7,135240,116241
6512,523,7,135241,116252
6515,521,7,135253,116245
6517,522,7,135250,116245
6520,522,7,135265,116249
6522,518,7,135269,116260
6525,510,7,135275,116256
6528,508,7,135285,116263
6531,509,7,135281,116240
6533,508,7,135281,116262
6535,502,7,135297,116262
6538,503,7,135299,116267
6540,505,7,135295,116234
6543,505,7,135303,116262
6545,500,7,135309,116266
6548,500,7,135308,116249
6550,507,7,135301,116272
6552,507,7,135319,116249
6555,505,7,135327,116276
6557,501,7,135321,116276
6560,501,7,135332,116276
6562,507,7,135334,116284
6565,511,7,135334,116283
6567,521,7,135343,116280
6571,530,7,135352,116281
6573,525,7,135349,116280
6575,524,7,135353,116283
6578,529,7,135359,116290
6580,533,7,135368,116292
6583,534,7,135366,116293
6585,534,7,135357,116290
6588,535,7,135357,116289
6590,534,7,135377,116296
6592,533,7,135377,116296
6595,532,7,135386,116294
6597,531,7,135383,116298
6600,531,7,135397,116293
6602,538,7,135385,116316
6605,541,7,135391,116306
6607,538,7,135400,116299
6610,537,7,135400,116315
6612,537,7,135398,116299
6615,534,7,135407,116299
6618,530,7,135411,116303
6620,531,7,135411,116299
6623,534,7,135416,116306
6625,542,7,135420,116303
6628,545,7,135420,116310
6630,544,7,135427,116329
6632,536,8,135425,116320
6635,530,7,135432,116310
6637,527,8,135430,116310
6640,519,7,135453,116321
6642,519,7,135453,116322
6645,518,7,135446,116322
6647,517,7,135448,116322
6650,518,7,135464,116323
6652,512,7,135459,116325
6654,511,8,135463,116325
6658,520,7,135469,116332
6660,523,7,135469,116332
6663,523,7,135475,116338
6665,520,7,135482,116338
6668,514,7,135491,116344
6670,512,7,135492,116335
6672,514,7,135494,116335
6675,515,7,135501,116347
6677,518,7,135501,116349
6680,526,8,135512,116345
6682,528,7,135514,116345
6685,526,7,135528,116354
6687,525,7,135528,116356
6690,525,7,135531,116360
6692,521,8,135539,116358
6694,516,7,135539,116355
6697,519,7,135545,116356
6700,521,8,135557,116356
6703,520,7,135561,116361
6705,520,7,135561,116376
6708,527,7,135566,116376
6710,528,8,135580,116376
6712,528,7,135599,116377
6715,530,7,135599,116384
6717,532,7,135598,116382
6720,533,7,135619,116382
6722,530,7,135630,116385
6725,522,7,135630,116392
6727,522,7,135630,116392
6730,532,7,135630,116395
6732,535,7,135621,116395
6734,534,7,135659,116402
6737,528,7,135659,116404
6739,527,7,135665,116407
6743,531,7,135682,116407
6745,532,7,135682,116416
6748,527,7,135651,116415
6750,526,7,135665,116415
6752,525,8,135711,116430
6755,516,7,135711,116424
6757,515,7,135720,116427
6760,514,7,135699,116427
6762,507,8,135699,116433
6765,510,7,135741,116433
6767,512,8,135757,116440
6770,514,7,135757,116440
6772,512,7,135760,116449
6774,512,7,135771,116449
6777,516,8,135779,116449
6779,517,7,135779,116454
6782,515,8,135783,116466
6785,516,8,135806,116462
6788,521,7,135815,116467
6790,527,7,135812,116466
6792,541,7,135824,116466
6795,552,7,135838,116468
6797,565,7,135838,116478
6800,574,7,135837,116482
6802,591,7,135838,116478
6805,611,7,135850,116490
6807,623,7,135861,116487
6810,622,7,135865,116487
6812,617,8,135880,116494
6814,604,7,135880,116497
6817,586,8,135892,116500
6819,541,7,135891,116497
6822,515,7,135930,116504
6824,493,7,135908,116508
6828,483,7,135918,116508
6830,477,8,135925,116512
6832,476,7,135933,116518
6835,473,7,135957,116517
6837,467,8,135958,116517
6840,469,7,135978,116528
6842,473,7,135980,116534
6845,476,7,135980,116522
6847,474,7,135984,116526
6850,476,7,135989,116541
6852,477,7,135995,116541
6854,479,7,136005,116535
6857,483,7,136012,116538
6859,480,7,136018,116543
6862,476,7,136032,116548
6864,473,7,136039,116547
6867,471,7,136049,116559
6870,468,7,136059,116559
6872,466,7,136062,116564
6875,465,7,136077,116567
6877,465,7,136084,116572
6880,466,7,136103,116576
6882,466,7,136100,116575
6885,464,7,136107,116583
6887,463,7,136120,116582
6890,462,7,136119,116580
6892,463,7,136130,116585
6894,468,7,136143,116593
6897,471,7,136144,116594
6899,473,7,136160,116596
6902,474,7,136171,116594
6904,472,7,136178,116608
6907,474,7,136181,116609
6909,475,7,136186,116612
6912,472,7,136199,116617
6915,471,7,136200,116616
6917,467,7,136226,116629
6920,465,7,136228,116623
6922,465,7,136231,116619
6925,467,7,136243,116630
6927,476,7,136247,116634
6930,483,7,136244,116637
6932,490,7,136265,116634
6934,495,7,136273,116642
6937,500,7,136265,116642
6939,503,7,136279,116643
6942,507,7,136288,116645
6944,510,7,136288,116645
6947,510,7,136296,116648
6949,511,7,136307,116655
6951,512,7,136303,116652
6955,513,7,136313,116659
6957,513,7,136322,116654
6960,515,7,136327,116661
6962,514,7,136325,116667
6965,517,7,136337,116672
6967,522,7,136341,116678
6970,525,7,136341,116671
6972,525,7,136352,116681
6974,523,7,136353,116677
6977,523,7,136368,116671
6979,523,7,136379,116683
6982,522,7,136369,116681
6984,520,7,136372,116684
6987,521,7,136382,116688
6989,520,7,136389,116687
6991,520,7,136381,116692
6994,520,7,136384,116688
6996,522,7,136394,116682
7000,524,7,136384,116685
7002,524,7,136387,116693
7005,526,7,136374,116691
7007,519,7,136353,116679
7010,520,7,136356,116668
7012,521,7,136334,116639
7014,519,7,136299,116649
7017,514,7,136257,116639
7019,511,7,136228,116619
7022,519,7,136174,116598
7024,530,7,136114,116579
7027,539,7,136050,116549
7029,540,7,135980,116524
7031,538,7,135907,116470
7034,533,7,135815,116456
7036,525,7,135724,116426
7040,521,7,135633,116426
7042,523,7,135543,116358
7045,526,7,135543,116329
7047,534,7,135371,116290
7050,542,7,135294,116271
7052,534,7,135219,116243
7054,533,7,135158,116215
7057,537,7,135093,116193
7059,539,7,135036,116176
7062,539,7,134994,116154
7064,538,7,134950,116137
7067,538,7,134950,116121
7069,536,7,134876,116114
7071,533,7,134841,116091
7074,530,7,134817,116086
7076,524,7,134781,116074
7079,522,7,134755,116061
7081,525,7,134730,116055
7085,525,7,134718,116048
7087,520,7,134699,116035
7090,521,7,134699,116022
7092,518,7,134652,116014
7094,512,7,134639,116014
7097,497,7,134634,116002
7099,490,7,134634,115993
7102,484,7,134616,115996
7104,482,7,134597,116014
7107,481,7,134591,115987
7109,479,7,134589,116004
7111,478,7,134579,116004
7114,475,7,134573,115977
7116,476,7,134573,115977
7119,484,7,134563,115986
7121,487,7,134560,115986
7124,485,7,134570,115975
7127,481,7,134570,115976
7130,483,7,134566,115985
7132,480,7,134566,115975
7134,477,7,134566,115976
7137,477,7,134576,115974
7139,477,7,134584,115988
7142,480,7,134590,115979
7144,484,7,134589,115979
7147,485,7,134608,115986
7149,484,7,134608,115991
7151,489,7,134602,115988
7154,489,7,134612,115991
7156,489,7,134612,115988
7159,494,7,134632,116004
7161,493,7,134632,116004
7164,495,7,134647,116003
7166,498,7,134641,116003
7170,499,7,134662,116003
7172,499,7,134662,116000
7174,499,7,134660,116010
7177,497,7,134666,116003
7179,496,7,134672,116014
7182,496,7,134670,116014
7184,495,7,134675,116014
7187,493,7,134682,116013
7189,491,7,134682,116006
7191,497,7,134682,116021
7194,498,7,134686,116022
7196,498,7,134686,116014
7199,504,7,134691,116016
7201,506,7,134690,116016
7204,505,7,134696,116017
7206,504,7,134696,116013
7209,504,7,134683,116007
7212,508,7,134656,116015
7214,508,7,134656,116004
7217,511,7,134648,116004
7219,513,7,134688,116008
7222,505,7,134688,116002
7224,504,7,134684,116013
7227,503,8,134671,116013
7229,499,7,134647,116007
7231,494,7,134678,116006
7234,488,7,134678,115998
7236,492,7,134680,116002
7239,494,7,134680,116002
7241,498,7,134679,116008
7244,505,7,134679,116012
7246,508,7,134691,116012
7249,521,7,134691,116012
7251,525,7,134671,116012
7254,523,7,134702,116018
7257,515,7,134702,116024
7259,515,7,134717,116025
7262,515,7,134717,116025
7264,509,7,134717,116025
7267,512,7,134738,116025
7269,518,7,134743,116034
7271,521,7,134743,116029
7274,514,7,134746,116029
7276,512,7,134737,116029
7279,513,7,134762,116027
7281,514,7,134750,116034
7284,513,7,134750,116033
7286,510,7,134758,116034
7289,516,7,134756,116034
7291,520,7,134781,116039
7293,521,7,134781,116030
7297,519,7,134763,116033
7299,519,7,134764,116033
7302,520,7,134777,116036
7304,520,7,134756,116036
7307,518,7,134756,116031
7309,518,7,134755,116032
7311,515,7,134758,116023
7314,514,7,134775,116031
7316,505,7,134762,116026
7319,505,7,134758,116026
7321,499,7,134740,116022
7324,498,7,134755,116023
7326,495,7,134726,116014
7329,500,7,134720,116014
7331,503,7,134720,116015
7333,507,7,134719,116014
7336,506,7,134724,116015
7339,504,7,134716,116019
7342,507,7,134699,116011
7344,510,7,134697,116005
7347,510,7,134695,116007
7349,509,7,134693,115999
7351,506,7,134685,116000
7354,497,7,134688,115995
7356,492,7,134678,115995
7359,489,7,134677,116006
7361,488,7,134679,115996
7364,488,7,134679,115999
7366,486,7,134679,115996
7369,490,7,134678,115995
7371,495,7,134672,115991
7373,499,7,134668,115985
7376,504,7,134674,115988
7378,503,7,134670,115984
7382,501,7,134666,115988
7384,500,7,134669,115980
7387,499,7,134660,115980
7389,496,7,134655,115989
7391,498,7,134668,115985
7394,502,7,134668,115982
7396,504,7,134667,115990
7399,513,7,134670,115985
7401,515,7,134668,115994
7404,517,7,134672,116000
7406,519,7,134681,115994
7409,518,7,134692,115995
7411,516,7,134694,115995
7413,516,7,134702,115988
7416,518,7,134689,115997
7418,517,7,134693,115997
7421,518,7,134705,116001
7424,520,7,134707,116002
7427,519,7,134717,116008
7429,517,7,134728,116009
7431,520,7,134733,116011
7434,525,7,134740,116009
7436,527,7,134746,116016
7439,528,7,134755,116015
7441,525,7,134754,116014
7444,525,7,134771,116022
7446,524,7,134772,116032
7449,521,7,134788,116032
7451,517,7,134790,116036
7453,517,7,134794,116025
7456,516,7,134810,116031
7458,514,7,134806,116037
7461,516,7,134824,116039
7463,517,7,134829,116043
7467,519,7,134834,116060
7469,519,7,134847,116060
7471,520,7,134865,116063
7474,524,7,134863,116058
7476,525,7,134881,116064
7479,525,7,134872,116063
7481,521,7,134892,116074
7484,522,7,134894,116077
7486,521,7,134898,116078
7489,524,7,134908,116066
7491,525,7,134921,116080
7493,519,7,134926,116087
7496,515,7,134935,116084
7498,513,7,134934,116065
7501,508,7,134949,116097
7503,501,7,134962,116093
7506,498,7,134957,116096
7508,500,7,134968,116102
7511,504,7,134982,116106
7514,504,7,134982,116101
7516,500,7,134987,116106
7519,498,7,134996,116111
7521,498,7,135012,116109
7524,501,7,135010,116114
7526,500,7,135016,116110
7529,503,7,135015,116113
7531,502,7,135022,116111
7533,495,7,135022,116121
7536,491,7,135027,116115
7538,489,7,135037,116110
7541,486,7,135035,116124
7543,480,7,135043,116124
7546,479,7,135053,116125
7548,480,7,135062,116127
7550,483,7,135060,116135
7554,484,7,135068,116129
7556,486,7,135062,116125
7559,487,7,135068,116138
7561,490,7,135083,116141
7564,494,7,135083,116134
7566,497,7,135072,116141
7569,492,7,135087,116143
7571,492,7,135099,116143
7573,498,7,135097,116143
7576,503,7,135102,116147
7578,499,7,135102,116151
7581,494,7,135102,116146
7583,492,7,135107,116168
7586,491,7,135110,116154
7588,488,7,135115,116169
7590,487,7,135127,116169
7593,482,7,135128,116158
7596,483,7,135128,116155
7599,489,7,135133,116175
7601,491,7,135132,116175
7604,488,7,135143,116164
7606,483,7,135143,116164
7609,483,7,135147,116170
7611,480,7,135152,116171
7613,477,7,135150,116171
7616,473,7,135163,116170
7618,477,7,135148,116167
7621,481,7,135161,116172
7623,489,7,135161,116170
7626,493,7,135157,116168
7628,491,7,135161,116172
7630,488,7,135169,116172
7633,484,7,135172,116180
7635,482,8,135172,116180
7639,478,7,135177,116174
7641,479,7,135177,116177
7644,483,7,135180,116172
7646,483,7,135180,116172
7649,480,7,135194,116184
7651,475,7,135194,116186
7653,475,7,135190,116182
7656,472,7,135192,116188
7658,469,7,135192,116188
7661,469,7,135211,116189
7663,470,7,135211,116194
7666,473,7,135213,116192
7668,474,7,135207,116192
7670,473,7,135224,116196
7673,474,7,135224,116192
7675,475,7,135220,116194
7678,475,7,135213,116194
7681,476,7,135240,116197
7684,477,7,135238,116206
7686,479,7,135238,116203
7689,485,7,135241,116207
7691,483,7,135248,116206
7693,478,7,135248,116209
7696,479,7,135242,116209
7698,480,7,135266,116214
7701,480,7,135266,116218
7703,479,7,135258,116218
7706,476,7,135273,116218
7708,472,7,135250,116216
7710,467,7,135280,116210
7713,462,7,135280,116220
7715,465,7,135285,116215
7718,467,7,135284,116215
7720,470,7,135295,116223
7724,474,7,135295,116226
7726,477,7,135300,116226
7729,490,7,135300,116225
7731,493,7,135280,116225
7733,491,7,135325,116238
7736,484,7,135325,116239
7738,484,7,135326,116238
7741,485,7,135325,116238
7743,478,7,135325,116242
7746,480,7,135340,116242
7748,487,7,135352,116246
7750,495,7,135352,116254
7753,496,7,135351,116254
7755,503,7,135361,116254
7758,519,7,135370,116256
7760,534,7,135370,116251
7763,570,7,135370,116258
7766,585,7,135368,116256
7769,588,7,135390,116256
7771,586,7,135390,116261
7773,570,7,135393,116270
7776,564,7,135407,116270
7778,551,7,135405,116275
7781,525,7,135405,116275
7783,504,7,135417,116278
7786,489,7,135420,116278
7788,477,7,135469,116283
7790,466,7,135469,116288
7793,460,7,135459,116293
7795,460,7,135453,116293
7798,465,7,135496,116294
7800,468,7,135487,116307
7803,472,7,135487,116303
7805,476,7,135496,116305
7809,478,7,135503,116316
7811,478,7,135507,116324
7813,478,7,135514,116318
7816,480,7,135523,116318
7818,476,7,135548,116325
7821,472,7,135554,116333
7823,468,7,135572,116337
7826,465,7,135569,116341
7828,461,7,135586,116342
7830,461,7,135597,116350
7833,461,7,135617,116358
7835,462,7,135612,116354
7838,463,7,135628,116358
7840,464,7,135627,116367
7843,464,7,135653,116367
7845,464,7,135650,116371
7848,465,7,135661,116366
7851,465,7,135682,116376
7853,470,7,135696,116384
7856,478,7,135690,116381
7858,478,7,135687,116393
7861,476,7,135701,116393
7863,475,7,135712,116392
7866,475,7,135738,116404
7868,474,7,135739,116403
7870,474,7,135748,116404
7873,474,7,135758,116412
7875,476,7,135768,116416
7878,486,7,135769,116418
7880,491,7,135785,116421
7883,494,7,135794,116432
7885,498,7,135790,116426
7888,503,7,135811,116434
7890,503,7,135827,116432
7892,503,7,135830,116435
7896,505,7,135850,116444
7898,508,7,135842,116455
7901,511,7,135860,116447
7903,514,7,135852,116454
7906,518,7,135868,116453
7908,518,7,135872,116454
7910,517,7,135883,116464
7913,518,7,135897,116471
7915,518,7,135907,116463
7918,521,7,135895,116473
7920,523,7,135910,116479
7923,526,7,135915,116478
7925,531,7,135917,116485
7928,536,7,135931,116485
7930,537,7,135934,116486
7932,536,7,135937,116486
7936,536,7,135952,116488
7938,536,7,135949,116490
7941,534,7,135944,116486
7943,533,7,135956,116496
7946,533,7,135961,116494
7948,533,7,135967,116498
7950,532,7,135973,116495
7953,531,7,135977,116500
7955,531,7,135971,116505
7958,532,7,135982,116505
7960,533,7,135971,116501
7963,535,7,135966,116501
7965,527,7,135964,116498
7968,528,7,135962,116486
7970,528,7,135940,116488
7972,528,7,135914,116480
7975,530,7,135903,116467
7977,532,7,135867,116456
7981,539,7,135829,116443
7983,546,7,135793,116426
7986,550,7,135737,116403
7988,548,7,135678,116374
7990,544,7,135614,116326
7993,537,7,135544,116323
7995,526,7,135462,116297
7998,521,7,135393,116273
8000,520,7,135316,116244
8003,524,7,135239,116212
8005,526,7,135170,116191
8008,529,7,135098,116162
8010,530,7,135037,116141
8012,532,7,134985,116115
8015,531,7,134919,116094
8017,531,7,134876,116070
8020,531,7,134829,116070
8023,530,7,134791,116043
8026,529,7,134791,116022
8028,525,7,134720,116007
8030,518,7,134681,115993
8033,514,7,134654,115976
8035,513,7,134624,115967
8038,509,7,134601,115952
8040,503,7,134556,115945
8043,501,7,134535,115941
8045,501,7,134512,115924
8048,504,7,134494,115924
8050,505,7,134467,115899
8052,504,7,134467,115892
8055,503,7,134420,115887
8057,500,7,134410,115876
8060,498,7,134401,115876
8062,493,7,134386,115871
8066,492,7,134386,115870
8068,489,7,134356,115856
8070,484,7,134357,115856
8073,479,7,134357,115857
8075,478,7,134357,115865
8078,476,7,134337,115861
8080,474,7,134330,115861
8083,471,7,134332,115847
8085,470,7,134335,115841
8088,472,7,134335,115843
8090,474,7,134338,115848
8092,474,7,134337,115848
8095,475,7,134340,115846
8097,477,7,134340,115855
8100,479,7,134340,115846
8102,479,7,134345,115846
8105,477,7,134366,115848
8108,478,7,134358,115846
8110,482,7,134360,115846
8113,488,7,134369,115857
8115,492,7,134369,115859
8118,502,7,134385,115858
8120,507,7,134375,115858
8123,507,7,134385,115857
8125,508,7,134385,115852
8128,512,7,134392,115864
8130,512,7,134395,115870
8132,510,7,134395,115860
8135,514,7,134407,115867
8137,516,7,134413,115866
8140,521,7,134416,115872
8142,526,7,134418,115872
8145,528,7,134425,115864
8147,530,7,134425,115865
8150,536,7,134423,115867
8153,538,7,134417,115867
8155,539,7,134417,115868
8158,545,7,134419,115861
8160,545,7,134411,115861
8163,548,7,134420,115867
8165,551,7,134423,115867
8168,552,7,134421,115863
8170,555,7,134421,115856
8172,555,7,134417,115856
8175,554,7,134412,115856
8177,554,7,134399,115860
8180,556,7,134399,115845
8182,555,7,134387,115845
8185,553,7,134407,115856
8187,551,7,134407,115850
8189,554,8,134398,115853
8193,555,8,134399,115855
8195,554,8,134399,115849
8198,558,8,134365,115849
8200,561,7,134411,115851
8203,564,8,134411,115853
8205,563,7,134406,115855
8208,559,7,134409,115851
8210,554,7,134419,115851
8212,551,8,134417,115850
8215,554,8,134417,115850
8217,558,7,134412,115857
8220,559,8,134419,115857
8222,557,7,134414,115860
8225,550,8,134414,115861
8227,545,8,134438,115862
8229,543,8,134440,115862
8232,540,8,134440,115858
8235,540,7,134451,115865
8238,540,8,134445,115865
8240,541,8,134445,115863
8243,549,8,134454,115863
8245,554,8,134458,115861
8248,561,8,134458,115863
8250,562,8,134461,115862
8252,564,8,134452,115862
8255,568,8,134451,115862
8257,569,8,134451,115863
8260,569,8,134454,115858
8262,573,8,134454,115855
8265,577,8,134456,115856
8267,579,8,134446,115849
8269,581,8,134440,115849
8272,581,7,134453,115855
8274,579,8,134453,115843
8278,574,8,134420,115848
8280,564,8,134426,115850
8283,562,8,134425,115839
8285,561,8,134401,115841
8288,561,8,134410,115833
8290,560,8,134427,115843
8292,550,8,134405,115828
8295,550,7,134416,115828
8297,543,8,134375,115824
8300,542,7,134386,115826
8302,540,8,134381,115817
8305,537,8,134381,115818
8307,531,7,134374,115817
8309,529,8,134380,115817
8312,527,7,134345,115809
8314,525,8,134351,115804
8317,523,8,134356,115798
8320,525,7,134344,115799
8323,532,8,134328,115808
8325,537,7,134338,115807
8328,539,7,134317,115795
8330,543,7,134318,115794
8332,539,8,134316,115786
8335,535,7,134331,115795
8337,532,8,134317,115786
8340,528,8,134316,115787
8342,526,7,134322,115783
8345,528,7,134318,115787
8347,526,7,134305,115788
8349,522,7,134300,115785
8352,521,7,134306,115785
8354,520,7,134304,115776
8357,519,7,134310,115776
8359,524,7,134296,115774
8363,533,7,134296,115772
8365,533,7,134300,115772
8368,532,7,134289,115777
8370,532,7,134301,115770
8372,529,7,134293,115775
8375,527,7,134300,115770
8377,527,7,134297,115767
8380,525,7,134290,115771
8382,523,7,134289,115767
8385,520,7,134291,115767
8387,521,7,134289,115763
8389,519,7,134302,115769
8392,520,7,134298,115765
8394,518,7,134294,115764
8397,519,7,134285,115763
8399,517,7,134296,115760
8402,518,7,134294,115767
8404,521,7,134296,115758
8408,523,7,134305,115764
8410,520,7,134295,115758
8412,518,7,134289,115769
8415,518,7,134292,115761
8417,516,7,134293,115758
8420,513,7,134299,115763
8422,508,7,134296,115757
8425,507,7,134300,115756
8427,506,7,134299,115750
8429,505,7,134309,115760
8432,503,7,134297,115761
8434,502,7,134301,115765
8437,502,7,134293,115761
8439,502,7,134307,115753
8442,502,7,134299,115764
8444,495,7,134307,115764
8448,495,7,134311,115761
8450,499,7,134315,115770
8452,502,7,134321,115767
8455,503,7,134317,115774
8457,501,7,134321,115756
8460,497,7,134325,115772
8462,491,7,134326,115778
8465,489,7,134330,115774
8467,490,7,134334,115779
8469,491,7,134336,115787
8472,493,7,134340,115780
8474,493,7,134348,115776
8477,494,7,134343,115781
8479,495,7,134346,115791
8482,503,7,134354,115784
8484,504,7,134350,115786
8487,507,7,134355,115754
8489,506,7,134361,115778
8492,499,7,134357,115780
8495,495,7,134360,115782
8497,493,7,134365,115764
8500,488,7,134360,115784
8502,482,7,134373,115782
8505,479,7,134366,115770
8507,483,7,134372,115779
8509,482,7,134385,115781
8512,480,7,134384,115786
8514,477,7,134386,115792
8517,477,7,134382,115792
8519,483,7,134405,115795
8522,488,7,134398,115788
8524,496,7,134395,115794
8527,500,7,134404,115794
8529,503,7,134413,115794
8531,506,7,134413,115802
8535,511,7,134418,115793
8537,513,7,134414,115795
8540,513,7,134427,115804
8542,514,7,134433,115798
8545,515,7,134433,115816
8547,515,7,134429,115803
8549,512,7,134442,115803
8552,510,7,134445,115806
8554,510,7,134445,115827
8557,507,7,134447,115825
8559,504,7,134453,115825
8562,500,7,134460,115810
8564,500,7,134459,115811
8567,502,7,134459,115822
8569,503,7,134458,115814
8571,501,7,134464,115814
8574,500,7,134479,115816
8577,501,7,134479,115830
8580,501,7,134471,115815
8582,499,7,134468,115815
8585,495,7,134483,115813
8587,494,7,134470,115820
8589,495,7,134478,115820
8592,496,7,134479,115821
8594,494,7,134479,115824
8597,494,7,134474,115825
8599,493,7,134485,115825
8602,490,7,134493,115827
8604,488,7,134493,115821
8607,493,7,134494,115826
8609,495,7,134491,115826
8611,492,7,134498,115833
8614,486,7,134498,115830
8616,484,7,134496,115830
8620,484,7,134499,115832
8622,488,7,134499,115828
8625,489,7,134501,115826
8627,489,7,134496,115826
8629,486,7,134509,115824
8632,487,7,134503,115832
8634,488,7,134508,115832
8637,488,7,134508,115829
8639,490,7,134507,115829
8642,494,7,134513,115831
8644,502,7,134513,115832
8647,497,7,134520,115833
8649,489,7,134508,115834
8651,483,7,134508,115830
8654,487,7,134501,115828
8656,488,7,134518,115828
8659,491,7,134518,115825
8662,496,7,134523,115833
8665,497,7,134522,115832
8667,496,7,134535,115832
8669,495,7,134533,115830
8672,494,7,134533,115830
8674,491,7,134531,115831
8677,486,7,134493,115831
8679,480,7,134534,115826
8682,478,7,134534,115831
8684,482,7,134530,115831
8687,496,7,134530,115834
8689,498,7,134494,115834
8691,496,7,134536,115836
8694,489,7,134536,115832
8696,489,7,134539,115838
8699,489,7,134546,115838
8701,483,7,134546,115839
8705,480,7,134551,115839
8707,477,7,134549,115842
8709,471,7,134549,115844
8712,474,7,134563,115844
8714,477,7,134559,115846
8717,486,7,134559,115840
8719,486,7,134566,115845
8722,486,7,134568,115845
8724,492,7,134568,115849
8727,494,7,134577,115849
8729,496,7,134582,115850
8731,495,7,134582,115851
8734,493,7,134591,115855
8736,498,7,134588,115855
8739,506,7,134588,115856
8741,511,7,134604,115861
8744,516,7,134604,115858
8747,536,7,134596,115857
8749,552,7,134603,115857
8752,580,7,134603,115869
8754,597,7,134617,115866
8757,601,7,134614,115866
8759,598,7,134614,115870
8762,585,7,134618,115868
8764,568,7,134641,115878
8767,554,7,134625,115878
8769,540,7,134642,115877
8771,521,7,134642,115872
8774,504,7,134642,115878
8776,473,7,134642,115878
8779,469,7,134653,115877
8781,467,7,134668,115882
8784,464,7,134668,115876
8786,461,7,134663,115874
8788,459,7,134659,115879
8792,462,7,134670,115879
8794,461,7,134675,115883
8797,458,7,134685,115895
8799,455,7,134696,115884
8802,454,7,134699,115893
8804,464,7,134690,115895
8807,466,7,134703,115896
8809,465,7,134713,115898
8811,464,7,134715,115893
8814,461,7,134713,115894
8816,460,7,134732,115905
8819,459,7,134751,115908
8821,467,7,134745,115909
8824,469,7,134739,115910
8826,469,7,134754,115920
8828,467,7,134759,115912
8832,464,7,134757,115916
8834,461,7,134764,115912
8837,460,7,134769,115923
8839,460,7,134764,115919
8842,460,7,134782,115921
8844,460,7,134787,115919
8847,463,7,134803,115935
8849,468,7,134796,115928
8851,471,7,134803,115933
8854,474,7,134818,115936
8856,471,7,134821,115941
8859,471,7,134820,115941
8861,473,7,134827,115938
8864,473,7,134835,115945
8866,475,7,134835,115945
8868,480,7,134832,115944
8871,485,7,134843,115943
8873,487,7,134851,115946
8877,487,7,134852,115961
8879,484,7,134859,115948
8882,484,7,134862,115962
8884,484,7,134867,115956
8887,482,7,134877,115956
8889,481,7,134880,115959
8891,481,7,134892,115961
8894,481,7,134890,115965
8896,481,7,134890,115969
8899,483,7,134899,115976
8901,485,7,134893,115969
8904,483,7,134912,115968
8906,484,7,134913,115974
8908,489,7,134914,115981
8911,491,7,134917,115974
8913,492,7,134934,115983
8916,494,7,134923,115977
8919,494,7,134927,115981
8922,495,7,134919,115978
8924,494,7,134929,115984
8927,499,7,134940,115987
8929,500,7,134932,115985
8931,501,7,134943,115983
8934,502,7,134940,115989
8936,501,7,134926,115991
8939,502,7,134927,115984
8941,501,7,134926,115985
8944,506,7,134927,115976
8946,512,7,134912,115981
8948,517,7,134898,115976
8951,517,7,134882,115966
8953,514,7,134865,115958
8956,513,7,134832,115945
8958,512,7,134795,115934
8962,511,7,134766,115922
8964,510,7,134720,115907
8967,513,7,134687,115884
8969,514,7,134639,115874
8971,516,7,134590,115851
8974,517,7,134541,115830
8976,518,7,134495,115814
8979,523,7,134451,115799
8981,526,7,134412,115779
8984,525,7,134360,115779
8986,522,7,134325,115743
8988,523,7,134278,115718
8991,524,7,134242,115714
8993,529,7,134195,115689
8996,530,7,134160,115672
8998,530,7,134119,115650
9001,530,7,134070,115634
9004,529,7,134044,115622
9007,534,7,134003,115606
9009,533,7,133980,115598
9011,531,7,133935,115582
9014,527,7,133916,115572
9016,526,7,133881,115549
9019,527,7,133881,115540
9021,525,7,133825,115545
9024,516,7,133808,115530
9026,510,7,133798,115517
9028,507,7,133760,115517
9031,504,7,133748,115498
9033,502,7,133748,115502
9036,497,7,133706,115499
9038,489,7,133694,115474
9041,485,7,133675,115492
9043,484,7,133665,115464
9047,484,7,133660,115464
9049,483,7,133657,115464
9051,482,7,133657,115456
9054,486,7,133630,115466
9056,484,7,133637,115449
9059,480,7,133631,115450
9061,477,7,133630,115446
9064,476,7,133630,115438
9066,473,7,133621,115440
9068,472,7,133615,115440
9071,468,7,133624,115447
9073,466,7,133624,115444
9076,464,7,133625,115447
9078,462,7,133620,115447
9081,458,7,133635,115447
9083,459,7,133635,115447
9086,462,7,133622,115444
9089,462,7,133630,115449
9091,460,7,133630,115449
9094,462,7,133641,115442
9096,463,7,133632,115442
9099,465,7,133640,115438
9101,471,7,133642,115437
9104,473,7,133635,115437
9106,482,7,133638,115433
9108,485,7,133635,115433
9111,485,7,133647,115430
9113,487,7,133647,115439
9116,492,7,133650,115442
9118,492,7,133642,115442
9121,488,7,133637,115432
9123,486,7,133637,115433
9126,485,7,133649,115433
9128,480,7,133639,115434
9131,475,7,133639,115429
9134,473,7,133636,115427
9136,471,7,133635,115427
9139,470,7,133628,115427
9141,475,7,133628,115418
9144,479,7,133622,115409
9146,478,7,133608,115415
9148,482,7,133608,115405
9151,485,7,133593,115405
9153,485,7,133603,115404
9156,485,7,133603,115397
9158,484,7,133589,115401
9161,481,7,133570,115401
9163,476,7,133562,115392
9166,476,7,133562,115393
9168,477,7,133537,115393
9170,477,7,133555,115383
9174,475,7,133555,115386
9176,480,7,133556,115379
9179,487,7,133544,115379
9181,491,7,133544,115380
9184,489,7,133544,115373
9186,486,7,133540,115373
9188,480,7,133539,115374
9191,482,7,133539,115375
9193,482,7,133548,115368
9196,480,7,133510,115368
9198,474,7,133510,115367
9201,479,7,133543,115367
9203,483,7,133555,115369
9206,489,7,133555,115366
9208,490,7,133552,115374
9210,492,7,133538,115374
9213,496,7,133555,115369
9216,497,7,133555,115365
9219,497,7,133557,115367
9221,500,7,133568,115366
9224,504,7,133565,115369
9226,508,7,133569,115365
9228,512,7,133571,115365
9231,514,7,133576,115360
9233,513,7,133576,115373
9236,510,7,133564,115363
9238,508,7,133565,115362
9241,509,7,133561,115367
9243,510,7,133564,115370
9246,511,7,133563,115370
9248,511,7,133569,115363
9250,509,7,133569,115357
9253,504,7,133552,115361
9255,496,7,133564,115357
9259,495,7,133558,115358
9261,492,7,133549,115354
9264,489,7,133549,115353
9266,483,7,133551,115355
9268,481,7,133550,115347
9271,478,7,133552,115352
9273,477,7,133542,115348
9276,477,7,133546,115342
9278,477,7,133540,115340
9281,477,7,133527,115340
9283,483,7,133533,115337
9286,488,7,133521,115336
9288,495,7,133520,115340
9290,499,7,133515,115334
9293,497,7,133513,115328
9295,487,7,133513,115330
9298,483,7,133518,115326
9300,481,7,133520,115323
9304,480,7,133506,115321
9306,479,7,133511,115324
9308,482,7,133505,115319
9311,485,7,133486,115313
9313,488,7,133497,115318
9316,494,7,133508,115304
9318,499,7,133498,115312
9321,498,7,133480,115310
9323,496,7,133486,115307
9326,493,7,133485,115308
9328,495,7,133491,115304
9330,499,7,133494,115304
9333,501,7,133489,115304
9335,502,7,133493,115302
9338,503,7,133499,115304
9340,503,7,133500,115306
9344,507,7,133494,115312
9346,510,7,133492,115311
9348,510,7,133500,115306
9351,513,7,133494,115305
9353,511,7,133507,115310
9356,510,7,133503,115304
9358,508,7,133504,115309
9361,506,7,133513,115311
9363,505,7,133517,115309
9366,506,7,133514,115321
9368,507,7,133517,115301
9370,507,7,133529,115310
9373,508,7,133518,115309
9375,507,7,133523,115311
9378,509,7,133532,115315
9380,509,7,133529,115304
9383,505,7,133541,115313
9385,496,7,133541,115316
9388,496,7,133547,115317
9391,498,7,133554,115326
9393,499,7,133561,115319
9396,501,7,133561,115322
9398,502,7,133559,115326
9401,505,7,133574,115336
9403,507,7,133580,115334
9406,504,7,133585,115338
9408,495,7,133587,115334
9410,495,7,133607,115345
9413,497,7,133618,115345
9415,498,7,133620,115350
9418,501,7,133619,115347
9420,503,7,133626,115351
9423,508,7,133625,115347
9425,513,7,133635,115356
9427,516,7,133646,115353
9431,515,7,133639,115363
9433,511,7,133655,115360
9436,510,7,133661,115369
9438,509,7,133670,115362
9441,508,7,133669,115370
9443,504,7,133676,115372
9446,505,7,133686,115370
9448,509,7,133682,115343
9450,512,7,133688,115382
9453,507,7,133695,115373
9455,502,7,133704,115377
9458,506,7,133708,115375
9460,510,7,133717,115381
9463,509,7,133713,115383
9465,506,7,133724,115385
9467,506,7,133733,115387
9470,506,7,133735,115390
9473,510,7,133751,115387
9476,510,7,133734,115395
9478,509,7,133743,115391
9481,509,7,133747,115394
9483,508,7,133757,115396
9486,512,7,133759,115396
9488,512,7,133758,115398
9490,511,7,133756,115393
9493,507,7,133768,115393
9495,507,7,133773,115401
9498,506,7,133773,115396
9500,501,7,133772,115411
9503,494,7,133771,115409
9505,491,7,133789,115409
9507,492,7,133782,115409
9510,490,7,133789,115397
9512,492,7,133789,115401
9516,499,7,133782,115410
9518,502,7,133791,115394
9521,502,7,133787,115420
9523,503,7,133793,115400
9526,506,7,133786,115400
9528,510,7,133811,115405
9530,511,7,133811,115403
9533,517,7,133791,115421
9535,517,7,133797,115401
9538,514,7,133811,115407
9540,513,7,133802,115402
9543,512,7,133802,115406
9545,511,7,133807,115406
9547,510,7,133820,115406
9550,509,7,133821,115419
9552,507,7,133821,115417
9555,505,7,133820,115415
9558,502,7,133829,115415
9561,501,7,133828,115410
9563,503,7,133828,115419
9566,501,7,133831,115422
9568,499,7,133830,115418
9570,497,7,133830,115416
9573,499,7,133844,115418
9575,500,7,133836,115418
9578,499,7,133836,115422
9580,500,7,133849,115422
9583,499,7,133856,115428
9585,500,7,133856,115425
9587,506,7,133858,115433
9590,507,7,133866,115431
9592,506,7,133866,115430
9595,509,7,133867,115433
9597,506,7,133878,115446
9601,506,7,133884,115442
9603,508,7,133887,115442
9606,508,7,133899,115444
9608,506,7,133899,115440
9610,504,7,133901,115445
9613,501,7,133913,115450
9615,500,7,133914,115450
9618,500,7,133926,115454
9620,500,7,133926,115457
9623,504,7,133917,115462
9625,504,7,133934,115462
9627,503,7,133948,115461
9630,501,7,133948,115469
9632,501,7,133954,115465
9635,500,7,133958,115465
9637,495,7,133973,115471
9640,486,7,133973,115473
9643,487,7,133973,115473
9646,489,7,133983,115473
9648,495,7,133983,115478
9650,494,7,133994,115485
9653,491,7,134007,115485
9655,485,7,134013,115488
9658,486,7,134013,115499
9660,488,7,133997,115499
9663,488,7,134038,115499
9665,484,7,134038,115503
9667,486,7,134043,115503
9670,485,7,134059,115513
9672,483,7,134059,115514
9675,487,7,134034,115514
9677,489,7,134085,115518
9680,493,7,134085,115517
9682,492,7,134092,115525
9686,489,7,134079,115525
9688,482,7,134079,115534
9690,478,7,134124,115538
9693,476,7,134129,115538
9695,473,7,134139,115550
9698,481,7,134139,115550
9700,486,7,134142,115549
9703,490,7,134153,115549
9705,495,7,134178,115553
9707,499,7,134178,115562
9710,496,7,134176,115565
9712,496,7,134184,115565
9715,499,7,134211,115568
9717,501,7,134210,115576
9720,501,7,134210,115570
9722,500,7,134216,115584
9725,508,7,134227,115584
9728,512,7,134254,115578
9730,514,7,134254,115578
9733,512,7,134246,115590
9735,508,7,134263,115596
9738,507,7,134270,115588
9740,504,7,134249,115597
9743,502,7,134266,115592
9745,499,7,134281,115596
9747,501,7,134292,115607
9750,505,7,134297,115609
9752,525,7,134308,115611
9755,525,7,134314,115611
9757,548,7,134316,115618
9760,568,7,134322,115620
9762,587,7,134328,115628
9765,606,7,134336,115628
9767,609,7,134337,115630
9769,608,7,134350,115633
9773,600,7,134362,115633
9775,584,7,134347,115639
9778,569,7,134379,115639
9780,546,7,134375,115643
9783,526,7,134382,115643
9785,508,7,134384,115647
9787,497,7,134392,115655
9790,487,7,134393,115646
9792,479,7,134392,115653
9795,472,7,134410,115659
9797,468,7,134418,115663
9800,467,7,134425,115668
9802,467,7,134430,115669
9805,468,7,134430,115666
9807,473,7,134454,115670
9809,479,7,134463,115676
9812,484,7,134454,115679
9815,486,7,134476,115688
9818,489,7,134477,115685
9820,491,7,134487,115688
9823,496,7,134479,115692
9825,500,7,134492,115683
9827,500,7,134497,115695
9830,502,7,134502,115695
9832,500,7,134513,115697
9835,498,7,134519,115705
9837,496,7,134529,115707
9840,493,7,134540,115719
9842,491,7,134548,115715
9845,491,7,134547,115721
9847,492,7,134559,115720
9849,491,7,134556,115736
9852,486,7,134568,115729
9854,481,7,134576,115733
9858,480,7,134574,115734
9860,480,7,134592,115736
9863,480,7,134600,115737
9865,479,7,134614,115741
9867,479,7,134600,115748
9870,479,7,134626,115750
9872,480,7,134635,115747
9875,484,7,134626,115754
9877,489,7,134645,115759
9880,494,7,134652,115767
9882,499,7,134654,115769
9885,504,7,134658,115775
9887,508,7,134670,115771
9889,510,7,134683,115780
9892,513,7,134681,115778
9894,515,7,134693,115780
9897,517,7,134687,115783
9900,517,7,134696,115788
9903,521,7,134715,115790
9905,522,7,134707,115793
9907,522,7,134717,115787
9910,522,7,134710,115791
9912,520,7,134723,115798
9915,518,7,134728,115797
9917,516,7,134726,115802
9920,520,7,134736,115798
9922,526,7,134739,115804
9925,529,7,134737,115809
9927,527,7,134743,115811
9929,523,7,134752,115817
9932,521,7,134752,115818
9934,520,7,134757,115819
9937,519,7,134762,115815
9939,518,7,134761,115817
9943,521,7,134772,115815
9945,521,7,134766,115817
9947,523,7,134763,115798
9950,521,7,134768,115813
9952,516,7,134771,115812
9955,515,7,134757,115816
9957,516,7,134752,115808
9960,517,7,134747,115808
9962,520,7,134733,115800
9965,524,7,134709,115792
9967,531,7,134683,115773
9969,536,7,134655,115763
9972,537,7,134618,115751
9974,536,7,134575,115738
9977,536,7,134530,115721
9979,542,7,134470,115694
9982,544,7,134417,115694
9985,545,7,134364,115651
9987,544,7,134364,115642
9990,541,7,134248,115607
9992,536,7,134193,115585
9995,534,7,134138,115585
9997,534,7,134090,115550
10000,537,7,134090,115528
10002,546,7,133987,115516
10005,550,7,133940,115516
10007,544,7,133895,115473
10009,544,7,133895,115456
10012,548,7,133819,115459
10014,550,7,133782,115426
10017,549,7,133741,115405
10019,548,7,133706,115395
10022,548,7,133706,115373
10024,547,7,133641,115362
10027,546,7,133609,115362
10030,542,7,133593,115344
10032,538,7,133593,115346
10035,532,7,133528,115331
10037,527,7,133502,115331
10040,521,7,133482,115308
10042,517,7,133482,115293
10045,517,7,133458,115296
10047,514,7,133426,115282
10049,510,7,133413,115282
10052,505,7,133409,115280
10054,504,7,133409,115276
10057,502,7,133399,115265
10059,498,7,133371,115265
10062,494,7,133375,115262
10064,493,7,133375,115254
10066,495,7,133361,115254
10070,496,7,133357,115249
10072,496,7,133357,115255
10075,499,7,133350,115252
10077,497,7,133351,115259
10080,499,7,133360,115246
10082,500,7,133346,115246
10085,501,7,133356,115248
10087,498,7,133356,115258
10089,498,7,133364,115252
10092,496,7,133364,115248
10094,494,7,133379,115259
10097,493,7,133379,115255
10099,493,7,133382,115255
10102,491,7,133377,115256
10104,491,7,133377,115264
10106,496,7,133390,115259
10109,497,7,133394,115259
10112,497,7,133394,115263
10115,501,7,133404,115263
10117,502,7,133407,115263
10120,500,7,133409,115268
10122,499,7,133409,115266
10125,499,7,133420,115267
10127,503,7,133395,115273
10129,503,7,133395,115267
10132,506,7,133401,115267
10134,507,7,133435,115256
10137,499,7,133435,115264
10139,498,7,133430,115266
10142,497,7,133425,115266
10144,497,7,133397,115257
10146,498,7,133419,115264
10149,494,7,133419,115255
10151,495,7,133416,115264
10155,495,7,133421,115264
10157,497,7,133421,115261
10160,500,7,133421,115253
10162,503,7,133409,115253
10165,514,7,133409,115253
10167,516,7,133372,115253
10169,514,7,133399,115252
10172,506,7,133399,115246
10174,506,7,133404,115249
10177,505,7,133395,115249
10179,507,7,133395,115243
10182,509,7,133386,115243
10184,507,7,133395,115243
10186,506,7,133395,115244
10189,504,7,133384,115239
10191,505,7,133387,115239
10194,508,7,133392,115242
10196,510,7,133383,115245
10200,510,7,133383,115243
10202,507,7,133391,115238
10205,513,7,133389,115238
10207,517,7,133409,115248
10209,518,7,133409,115244
10212,517,7,133403,115248
10214,518,7,133413,115248
10217,521,7,133438,115248
10219,520,7,133445,115255
10222,517,7,133445,115249
10224,511,7,133421,115254
10226,505,7,133429,115255
10229,504,7,133443,115260
10231,502,7,133467,115260
10234,503,7,133449,115260
10236,505,7,133455,115267
10240,504,7,133465,115260
10242,501,7,133483,115269
10245,496,7,133487,115269
10247,497,7,133488,115272
10249,501,7,133488,115265
10252,502,7,133467,115268
10254,502,7,133467,115269
10257,503,7,133472,115268
10259,502,7,133464,115264
10262,500,7,133461,115264
10264,495,7,133466,115261
10266,492,7,133460,115261
10269,491,7,133461,115258
10271,492,7,133456,115256
10274,493,7,133451,115257
10276,495,7,133453,115250
10279,494,7,133455,115257
10281,494,7,133439,115245
10285,493,7,133435,115252
10287,498,7,133438,115253
10289,504,7,133446,115250
10292,509,7,133423,115237
10294,511,7,133420,115244
10297,513,7,133434,115244
10299,511,7,133419,115243
10302,508,7,133415,115244
10304,506,7,133410,115223
10306,504,7,133406,115237
10309,506,7,133410,115237
10311,512,7,133419,115238
10314,514,7,133412,115237
10316,517,7,133395,115224
10319,519,7,133407,115232
10321,516,7,133408,115232
10324,515,7,133400,115248
10327,516,7,133396,115232
10329,515,7,133403,115232
10332,515,7,133412,115233
10334,515,7,133419,115239
10337,514,7,133410,115233
10339,513,7,133408,115237
10342,512,7,133418,115237
10344,513,7,133400,115236
10346,513,7,133413,115232
10349,513,7,133421,115235
10351,513,7,133425,115230
10354,515,7,133406,115236
10356,516,7,133422,115236
10359,519,7,133424,115235
10361,520,7,133426,115237
10364,520,7,133432,115236
10366,519,7,133429,115239
10369,518,7,133443,115245
10372,518,7,133444,115244
10374,517,7,133463,115255
10377,518,7,133453,115253
10379,518,7,133458,115254
10382,521,7,133476,115258
10384,522,7,133465,115258
10386,517,7,133486,115268
10389,509,7,133486,115272
10391,505,7,133486,115264
10394,505,7,133498,115272
10396,505,7,133496,115270
10399,511,7,133520,115274
10401,517,7,133529,115279
10404,521,7,133524,115278
10406,519,7,133534,115288
10408,516,7,133550,115286
10412,514,7,133545,115284
10414,513,7,133557,115290
10417,511,7,133565,115291
10419,508,7,133569,115298
10422,509,7,133577,115300
10424,508,7,133588,115306
10426,509,7,133593,115309
10429,508,7,133606,115314
10431,509,7,133610,115314
10434,514,7,133617,115322
10436,515,7,133627,115320
10439,514,7,133629,115323
10441,513,7,133649,115322
10444,514,7,133642,115327
10446,512,7,133644,115324
10448,513,7,133653,115323
10451,512,7,133670,115330
10454,511,7,133670,115331
10457,511,7,133675,115331
10459,509,7,133682,115334
10462,509,7,133682,115340
10464,507,7,133694,115340
10466,502,7,133703,115344
10469,501,7,133706,115348
10471,501,7,133726,115347
10474,499,7,133727,115346
10476,496,7,133726,115360
10479,497,7,133737,115366
10481,501,7,133742,115363
10484,506,7,133744,115363
10486,512,7,133752,115371
10488,514,7,133752,115359
10491,515,7,133751,115379
10493,510,7,133761,115365
10497,507,7,133762,115372
10499,507,7,133767,115373
10502,509,7,133767,115391
10504,510,7,133776,115374
10506,507,7,133780,115374
10509,505,7,133785,115379
10511,505,7,133785,115389
10514,503,7,133791,115383
10516,499,7,133792,115383
10519,496,7,133800,115383
10521,494,7,133800,115387
10524,497,7,133802,115393
10526,498,7,133802,115385
10528,495,7,133809,115385
10531,494,7,133819,115393
10533,495,7,133819,115400
10536,496,7,133815,115392
10539,494,7,133814,115392
10542,493,7,133830,115393
10544,495,7,133830,115401
10546,500,7,133817,115401
10549,504,7,133834,115402
10551,505,7,133833,115402
10554,506,7,133840,115405
10556,504,7,133840,115406
10559,505,7,133841,115406
10561,506,7,133849,115406
10564,506,7,133851,115404
10566,507,7,133858,115411
10568,509,7,133847,115411
10571,512,7,133859,115416
10573,518,7,133859,115416
10576,521,7,133864,115421
10578,521,7,133865,115421
10582,518,7,133878,115417
10584,515,7,133878,115416
10586,515,7,133870,115419
10589,518,7,133878,115418
10591,519,7,133879,115418
10594,516,7,133892,115427
10596,515,7,133892,115428
10599,520,7,133891,115433
10601,520,7,133905,115433
10604,519,7,133906,115438
10606,520,7,133906,115434
10608,520,7,133907,115439
10611,519,7,133915,115439
10613,513,7,133912,115442
10616,504,7,133912,115448
10618,502,7,133907,115448
10621,498,7,133943,115447
10624,496,7,133943,115454
10626,499,7,133938,115458
10629,500,7,133950,115451
10631,499,7,133950,115454
10634,498,7,133951,115454
10636,496,7,133926,115459
10639,489,7,133926,115459
10641,484,7,133957,115467
10644,481,7,133977,115467
10646,478,7,133978,115462
10648,476,7,133989,115472
10651,481,7,133989,115479
10653,485,7,133985,115479
10656,485,7,133971,115479
10658,481,7,133971,115481
10661,481,7,133999,115481
10663,484,7,134011,115486
10665,491,7,134011,115483
10669,491,7,134011,115492
10671,494,7,134023,115492
10674,501,7,134024,115496
10676,504,7,134031,115498
10679,510,7,134031,115508
10681,511,7,134041,115502
10684,509,7,134067,115502
10686,503,7,134067,115513
10688,501,7,134052,115514
10691,500,7,134071,115514
10693,498,7,134075,115524
10696,502,7,134075,115525
10698,505,7,134089,115528
10701,507,7,134090,115528
10703,511,7,134120,115532
10705,514,7,134120,115536
10708,516,7,134105,115534
10711,523,7,134118,115534
10714,527,7,134131,115544
10716,528,7,134154,115547
10719,526,7,134154,115543
10721,517,7,134151,115552
10724,518,7,134151,115550
10726,518,7,134159,115563
10728,520,7,134161,115558
10731,522,7,134181,115559
10733,520,7,134197,115566
10736,516,7,134201,115561
10738,513,7,134194,115568
10741,511,7,134215,115574
10743,508,7,134225,115576
10745,507,7,134229,115581
10748,506,7,134220,115586
10750,506,7,134233,115585
10754,505,7,134255,115587
10756,510,7,134240,115590
10759,517,7,134237,115593
10761,521,7,134255,115590
10764,523,7,134263,115597
10766,526,7,134256,115606
10768,524,7,134269,115605
10771,519,7,134270,115601
10773,514,7,134271,115613
10776,510,7,134299,115613
10778,514,7,134306,115614
10781,518,7,134310,115621
10783,522,7,134308,115617
10785,525,7,134313,115628
10788,531,7,134331,115625
10790,543,7,134333,115631
10793,560,7,134341,115634
10796,587,7,134333,115628
10799,614,7,134352,115636
10801,633,7,134362,115644
10804,634,7,134373,115650
10806,627,7,134378,115647
10808,618,7,134383,115651
10811,591,7,134373,115650
10813,572,7,134393,115654
10816,557,7,134393,115664
10818,538,7,134394,115663
10821,517,7,134410,115659
10823,495,7,134416,115671
10825,493,7,134413,115678
10828,493,7,134419,115676
10830,494,7,134429,115676
10833,496,7,134442,115681
10835,498,7,134442,115678
10839,502,7,134445,115687
10841,504,7,134458,115690
10844,507,7,134467,115695
10846,508,7,134469,115690
10848,508,7,134481,115695
10851,509,7,134489,115691
10853,507,7,134495,115708
10856,507,7,134494,115702
10858,505,7,134501,115706
10861,508,7,134507,115715
10863,509,7,134522,115708
10865,510,7,134533,115721
10868,509,7,134532,115718
10870,508,7,134542,115723
10873,507,7,134550,115729
10875,504,7,134555,115735
10878,507,7,134558,115733
10881,512,7,134570,115733
10884,515,7,134577,115737
10886,513,7,134579,115743
10888,509,7,134585,115748
10891,508,7,134585,115753
10893,508,7,134603,115748
10896,505,7,134602,115751
10898,501,7,134603,115750
10901,502,7,134624,115755
10903,501,7,134627,115765
10905,501,7,134623,115767
10908,500,7,134632,115768
10910,502,7,134642,115769
10913,508,7,134642,115771
10915,510,7,134654,115776
10918,509,7,134655,115780
10920,508,7,134671,115777
10924,503,7,134669,115782
10926,491,7,134672,115780
10928,491,7,134690,115788
10931,491,7,134690,115788
10933,494,7,134689,115791
10936,496,7,134700,115797
10938,499,7,134706,115795
10941,499,7,134710,115785
10943,497,7,134715,115795
10945,492,7,134715,115802
10948,493,7,134716,115794
10950,493,7,134731,115796
10953,491,7,134731,115804
10955,487,7,134727,115804
10958,488,7,134734,115817
10960,492,7,134750,115808
10963,498,7,134749,115808
10966,506,7,134760,115817
10968,508,7,134760,115812
10971,510,7,134767,115817
10973,511,7,134761,115820
10976,511,7,134776,115820
10978,510,7,134788,115832
10981,510,7,134788,115840
10983,509,7,134783,115826
10985,506,7,134784,115826
10988,504,7,134794,115831
10990,505,7,134794,115855
10993,504,7,134787,115852
10995,502,7,134787,115852
10998,499,7,134792,115826
11000,499,7,134783,115827
11003,501,7,134783,115838
11005,504,7,134740,115811
11008,503,7,134717,115811
11011,505,7,134692,115792
11013,507,7,134692,115782
11016,510,7,134596,115764
11018,509,7,134543,115764
11021,507,7,134497,115728
11023,510,7,134422,115684
11025,513,7,134346,115684
11028,519,7,134284,115631
11030,518,7,134284,115606
11033,520,7,134147,115585
11035,520,7,134083,115585
11038,519,7,134030,115543
11040,520,7,134030,115519
11043,526,7,133978,115509
11045,528,7,133881,115509
11047,527,7,133844,115492
11051,522,7,133797,115450
11053,520,7,133759,115450
11056,520,7,133717,115429
11058,525,7,133717,115397
11061,527,7,133685,115386
11063,525,7,133608,115386
11065,521,7,133579,115368
11068,520,7,133545,115349
11070,521,7,133515,115349
11073,519,7,133485,115323
11075,519,7,133458,115323
11078,521,7,133440,115315
11080,523,7,133440,115293
11083,514,7,133430,115289
11085,501,7,133381,115286
11087,493,7,133381,115268
11090,494,7,133344,115268
11092,494,7,133356,115261
11096,492,7,133341,115272
11098,489,8,133341,115255
11101,487,7,133336,115254
11103,482,7,133323,115262
11105,483,7,133323,115257
11108,484,7,133324,115257
11110,482,7,133323,115253
11113,480,7,133323,115251
11115,477,7,133312,115260
11118,472,7,133325,115260
11120,465,7,133336,115257
11123,465,7,133336,115257
11125,466,8,133294,115257
11127,467,7,133337,115259
11130,465,7,133337,115259
11132,469,7,133340,115264
11136,470,7,133350,115264
11138,475,7,133350,115268
11141,479,7,133351,115274
11143,478,7,133381,115274
11145,474,7,133394,115277
11148,475,7,133394,115279
11150,476,7,133386,115281
11153,474,7,133382,115281
11155,471,7,133407,115282
11158,467,7,133407,115290
11160,472,7,133417,115286
11163,475,7,133427,115286
11165,474,7,133435,115289
11167,480,7,133435,115294
11170,484,7,133434,115301
11172,489,7,133435,115298
11175,495,7,133447,115300
11177,500,7,133453,115308
11181,503,7,133462,115308
11183,505,7,133485,115308
11185,506,7,133485,115306
11188,505,7,133465,115304
11190,509,7,133474,115304
11193,512,7,133487,115310
11195,513,7,133471,115311
11198,513,7,133471,115305
11200,513,7,133468,115303
11203,513,7,133473,115307
11205,512,7,133470,115304
11207,512,7,133468,115301
11210,512,7,133471,115306
11212,508,7,133489,115306
11215,507,7,133475,115302
11217,505,7,133472,115296
11220,502,7,133492,115301
11223,497,7,133491,115299
11225,495,7,133493,115311
11228,494,7,133478,115307
11230,494,7,133486,115306
11233,494,7,133493,115307
11235,494,7,133501,115308
11238,493,7,133504,115316
11240,496,7,133477,115310
11243,499,7,133498,115307
11245,502,7,133507,115313
11247,509,7,133496,115318
11250,514,7,133506,115328
11252,510,7,133515,115312
11255,507,7,133528,115319
11257,504,7,133537,115324
11260,503,7,133536,115325
11262,500,7,133539,115330
11265,499,7,133535,115326
11268,497,7,133552,115332
11270,498,7,133548,115332
11273,503,7,133566,115340
11275,510,7,133570,115343
11278,514,7,133561,115345
11280,517,7,133564,115341
11283,519,7,133572,115341
11285,519,7,133576,115334
11287,517,7,133575,115341
11290,523,7,133559,115340
11292,527,7,133572,115337
11295,527,7,133570,115341
11297,528,7,133559,115340
11300,529,7,133569,115339
11302,526,7,133564,115337
11304,523,7,133566,115340
11308,522,7,133563,115331
11310,524,7,133547,115337
11313,525,7,133553,115337
11315,524,7,133555,115331
11318,522,7,133540,115329
11320,517,7,133536,115320
11323,512,7,133535,115329
11325,510,7,133533,115327
11327,511,7,133536,115322
11330,515,7,133535,115318
11332,516,7,133515,115322
11335,519,7,133514,115323
11337,522,7,133506,115313
