TimeStamp,ECG Data,GSR Data,PPG_Red Data,PPG_IR Data
4,0,0,0,0
6,477,4,0,57525
8,474,4,57542,57525
11,475,4,90282,73939
13,480,4,90282,106687
16,490,4,106697,113441
18,509,4,123079,113443
21,526,4,130710,113444
23,541,4,130714,113437
25,563,4,130714,113437
28,569,5,130713,113439
30,575,5,130713,113432
33,577,5,130711,113438
35,589,5,130713,113433
38,592,5,130716,113434
40,596,5,130704,113433
44,598,5,130717,113427
46,601,5,130711,113436
48,603,5,130707,113434
51,599,5,130710,113427
53,595,5,130711,113431
56,597,5,130717,113431
58,599,5,130715,113428
61,597,5,130705,113432
63,593,6,130711,113426
65,591,6,130712,113429
68,593,6,130716,113431
70,592,6,130721,113426
73,588,6,130704,113445
75,584,6,130717,113435
78,582,6,130716,113437
80,584,6,130712,113434
83,586,6,130718,113434
86,576,6,130716,113444
88,573,6,130700,113435
91,573,6,130708,113428
93,574,6,130699,113434
96,568,6,130706,113430
98,563,6,130705,113432
101,561,6,130687,113437
103,559,6,130691,113425
105,558,6,130688,113413
108,552,6,130684,113417
110,553,6,130663,113412
113,552,7,130669,113411
115,548,7,130648,113404
118,547,6,130655,113407
120,543,7,130648,113399
123,545,7,130619,113401
125,545,7,130632,113390
128,539,7,130626,113390
131,533,7,130628,113393
133,528,7,130621,113387
136,531,6,130612,113388
138,531,7,130604,113389
141,532,7,130611,113389
143,531,7,130604,113381
145,532,7,130604,113381
148,529,7,130602,113382
150,531,7,130603,113383
153,532,7,130608,113389
155,527,7,130596,113385
158,523,7,130604,113391
160,521,7,130606,113387
163,526,7,130614,113383
165,528,7,130613,113391
167,522,7,130617,113386
171,516,7,130597,113388
173,511,7,130615,113395
176,517,7,130612,113393
178,519,7,130614,113402
181,521,7,130617,113388
183,520,7,130616,113389
185,521,7,130618,113400
188,517,7,130618,113392
190,519,7,130619,113398
193,520,7,130620,113395
195,516,7,130624,113391
198,515,7,130624,113397
200,513,7,130622,113394
203,517,7,130633,113396
205,518,7,130625,113392
207,511,7,130623,113394
210,509,7,130616,113392
212,505,7,130620,113388
216,506,7,130612,113380
218,507,7,130619,113384
221,508,7,130620,113385
223,508,7,130612,113385
225,512,7,130615,113388
228,514,7,130614,113386
230,507,7,130610,113376
233,503,7,130595,113381
235,502,7,130608,113374
238,503,7,130608,113359
240,505,7,130609,113369
243,507,7,130593,113364
245,504,7,130606,113372
247,504,7,130602,113366
250,501,7,130616,113373
252,498,7,130602,113375
256,501,7,130602,113372
258,502,7,130610,113368
261,503,7,130610,113382
263,502,7,130620,113384
265,504,7,130621,113384
268,502,8,130635,113382
270,504,7,130629,113382
273,505,7,130633,113389
275,503,7,130627,113387
278,502,7,130644,113389
280,500,7,130643,113392
283,501,7,130642,113392
285,500,7,130650,113397
287,500,7,130650,113393
290,501,7,130648,113397
292,498,7,130645,113397
295,500,7,130655,113389
297,499,7,130655,113396
301,503,7,130645,113392
303,504,7,130651,113393
305,499,7,130650,113393
308,496,7,130652,113400
310,494,7,130652,113388
313,494,7,130653,113388
315,497,7,130653,113389
318,496,7,130655,113393
320,503,7,130655,113386
323,505,7,130649,113397
325,501,7,130655,113392
327,495,7,130653,113404
330,492,7,130659,113398
332,490,7,130658,113398
335,494,7,130671,113403
337,495,7,130671,113407
340,497,7,130663,113414
343,496,7,130676,113414
345,494,7,130684,113411
348,495,7,130686,113402
350,500,7,130686,113411
353,502,7,130679,113411
355,500,7,130693,113411
358,501,7,130688,113424
360,499,7,130688,113424
363,501,7,130688,113425
365,499,7,130704,113430
367,496,7,130704,113429
370,494,7,130702,113426
372,491,7,130697,113426
375,493,7,130710,113437
377,495,7,130710,113429
380,500,7,130697,113432
382,501,7,130702,113432
385,497,7,130703,113434
388,495,7,130703,113430
390,490,7,130713,113436
393,488,7,130700,113436
395,493,8,130716,113425
398,497,7,130716,113420
400,503,7,130691,113419
403,502,7,130668,113420
405,497,7,130703,113420
407,495,7,130696,113423
410,491,7,130696,113419
412,488,7,130700,113421
415,489,7,130697,113421
417,494,7,130701,113426
420,499,7,130701,113428
422,503,7,130696,113430
424,501,7,130703,113423
428,497,7,130695,113423
430,497,7,130706,113433
433,496,7,130706,113434
435,500,7,130708,113434
438,501,7,130699,113434
440,498,7,130710,113434
443,499,7,130710,113435
445,497,7,130708,113435
447,497,7,130708,113439
450,500,7,130710,113439
452,504,7,130704,113442
455,501,7,130704,113438
457,500,7,130706,113438
460,501,7,130712,113443
462,501,7,130719,113435
464,500,7,130715,113435
467,499,7,130711,113434
470,496,7,130711,113437
473,493,7,130711,113429
475,498,7,130717,113424
478,499,7,130700,113424
480,501,8,130700,113424
483,499,7,130706,113424
485,498,7,130705,113429
487,497,7,130705,113416
490,498,8,130698,113425
492,497,7,130686,113425
495,496,7,130696,113424
497,494,7,130696,113428
500,491,7,130693,113422
502,493,7,130694,113424
504,490,7,130717,113420
507,487,7,130703,113423
509,487,7,130711,113418
513,488,7,130697,113417
515,497,7,130701,113417
518,499,7,130697,113425
520,498,7,130692,113428
523,495,7,130709,113419
525,491,7,130709,113421
527,492,7,130695,113428
530,493,7,130704,113424
532,491,7,130718,113427
535,492,7,130721,113427
537,496,7,130703,113428
540,494,7,130706,113427
542,491,7,130721,113433
544,489,7,130720,113439
547,493,7,130735,113445
549,495,7,130737,113440
552,493,7,130726,113450
555,489,7,130735,113447
558,489,7,130741,113446
560,488,7,130740,113448
563,492,7,130743,113446
565,490,7,130734,113447
567,492,7,130729,113448
570,495,7,130728,113451
572,497,7,130720,113438
575,494,7,130730,113439
577,491,7,130723,113431
580,491,7,130707,113431
582,490,7,130713,113425
584,492,7,130696,113422
587,490,7,130696,113417
589,492,7,130692,113415
592,493,7,130693,113411
594,489,7,130688,113404
598,491,7,130695,113410
600,492,7,130691,113412
603,498,7,130684,113416
605,500,7,130695,113416
607,506,7,130699,113412
610,511,7,130697,113417
612,519,7,130693,113423
615,525,7,130697,113425
617,527,7,130699,113420
620,534,7,130711,113421
622,542,7,130708,113425
624,548,7,130705,113424
627,549,7,130717,113426
629,541,7,130713,113434
632,529,7,130714,113431
634,509,7,130720,113430
637,502,7,130721,113430
640,496,7,130716,113432
643,487,7,130721,113435
645,482,7,130718,113430
647,476,7,130724,113435
650,474,7,130727,113431
652,474,7,130715,113439
655,477,7,130718,113436
657,476,7,130718,113430
660,478,7,130718,113433
662,485,7,130708,113432
664,493,7,130719,113438
667,497,7,130715,113435
669,493,7,130716,113429
672,489,7,130715,113429
674,488,7,130710,113421
677,494,7,130713,113423
679,500,7,130715,113430
683,496,7,130705,113432
685,498,7,130706,113425
687,500,7,130713,113426
690,492,7,130712,113431
692,494,7,130715,113431
695,494,7,130713,113428
697,490,7,130710,113436
700,491,7,130710,113436
702,490,7,130724,113445
704,495,7,130735,113446
707,497,7,130739,113445
709,492,7,130737,113449
712,489,7,130736,113449
714,488,7,130743,113449
717,492,7,130743,113460
719,499,7,130750,113453
722,498,7,130749,113455
724,501,7,130751,113460
727,501,7,130744,113452
730,496,7,130757,113453
732,490,7,130739,113452
735,492,7,130737,113457
737,494,7,130745,113451
740,496,7,130745,113450
742,496,7,130739,113452
744,498,7,130743,113452
747,499,7,130736,113445
749,501,7,130744,113447
752,502,8,130739,113452
754,500,7,130727,113435
757,499,7,130728,113428
759,497,7,130725,113430
762,499,7,130720,113430
764,498,7,130727,113440
766,498,8,130735,113442
770,501,8,130736,113448
772,500,7,130740,113452
775,499,7,130753,113452
777,499,7,130751,113458
780,505,7,130767,113455
782,508,7,130760,113460
784,504,7,130766,113460
787,501,7,130772,113471
789,499,7,130772,113464
792,499,7,130776,113463
794,498,7,130775,113463
797,500,8,130775,113470
799,501,8,130778,113471
802,504,7,130772,113471
804,507,8,130773,113473
806,501,7,130773,113473
809,497,7,130771,113469
812,499,7,130776,113469
815,500,8,130775,113466
817,505,8,130775,113466
820,508,7,130782,113469
822,504,7,130773,113469
824,500,7,130775,113474
827,502,7,130776,113471
829,508,8,130776,113479
832,511,7,130774,113479
834,508,7,130775,113479
837,510,7,130786,113479
839,509,7,130786,113476
842,512,7,130781,113476
844,511,7,130778,113484
846,509,8,130778,113478
849,508,7,130784,113478
851,505,7,130785,113478
855,507,7,130780,113484
857,507,8,130780,113470
860,512,7,130783,113478
862,513,7,130793,113478
864,509,8,130775,113476
867,507,7,130775,113476
869,502,8,130787,113479
872,500,7,130774,113479
874,504,7,130770,113471
877,506,7,130770,113467
879,511,7,130765,113466
882,510,7,130726,113464
884,504,8,130756,113464
886,500,7,130750,113466
889,500,7,130750,113454
891,494,7,130738,113454
894,491,7,130722,113454
897,494,7,130731,113454
900,497,7,130731,113447
902,500,7,130719,113452
904,499,7,130716,113448
907,495,8,130714,113448
909,496,7,130711,113455
912,494,7,130711,113457
914,498,7,130720,113450
917,498,7,130709,113450
919,494,7,130711,113454
922,495,7,130711,113452
924,493,8,130706,113452
926,493,7,130706,113459
929,496,8,130708,113459
931,500,7,130708,113454
934,497,8,130708,113457
936,496,7,130710,113457
940,498,8,130715,113462
942,499,8,130714,113467
944,498,7,130717,113467
947,498,7,130718,113469
949,495,7,130718,113463
952,492,7,130720,113468
954,496,7,130726,113468
957,497,7,130731,113468
959,498,8,130731,113468
962,497,7,130740,113468
964,496,8,130740,113475
966,496,7,130740,113477
969,496,7,130739,113478
971,497,7,130735,113478
974,495,8,130748,113479
976,493,7,130748,113486
979,492,7,130744,113476
982,496,7,130744,113487
984,498,7,130754,113487
987,499,7,130753,113482
989,497,7,130770,113475
992,496,7,130756,113483
994,501,8,130748,113483
997,502,8,130746,113480
999,502,7,130748,113484
1002,500,7,130767,113477
1004,497,7,130759,113472
1006,500,7,130737,113473
1009,502,7,130750,113474
1011,501,7,130755,113478
1014,502,7,130755,113473
1016,507,7,130756,113475
1019,506,7,130752,113470
1021,503,7,130755,113466
1024,502,7,130750,113463
1027,505,7,130760,113477
1029,508,7,130762,113475
1032,506,7,130750,113477
1034,502,7,130761,113474
1037,500,7,130772,113484
1039,504,7,130778,113487
1042,507,7,130779,113491
1044,501,7,130785,113490
1046,501,7,130782,113496
1049,504,7,130795,113504
1051,506,7,130790,113500
1054,501,7,130797,113499
1056,498,7,130800,113507
1059,498,7,130796,113504
1061,498,7,130806,113512
1063,499,7,130804,113506
1067,500,7,130795,113510
1069,504,7,130801,113502
1072,506,7,130812,113506
1074,503,7,130817,113514
1077,500,7,130828,113512
1079,498,7,130821,113513
1082,503,7,130813,113519
1084,503,7,130816,113514
1086,503,7,130817,113507
1089,504,7,130823,113508
1091,509,7,130811,113515
1094,511,7,130825,113519
1096,508,7,130824,113516
1099,506,7,130819,113513
1101,505,7,130825,113519
1103,509,7,130816,113513
1106,511,7,130816,113505
1108,507,7,130813,113506
1112,506,7,130806,113511
1114,504,7,130813,113507
1117,508,7,130806,113504
1119,513,7,130806,113504
1122,510,7,130811,113501
1124,509,7,130802,113501
1126,503,7,130801,113504
1129,501,7,130807,113502
1131,500,7,130793,113500
1134,501,7,130791,113498
1136,499,7,130798,113487
1139,498,7,130785,113497
1141,502,7,130783,113483
1143,508,7,130779,113485
1146,512,7,130783,113487
1148,508,7,130782,113480
1152,505,7,130779,113484
1154,503,7,130778,113482
1157,509,7,130765,113475
1159,515,7,130774,113483
1162,512,8,130753,113479
1164,513,7,130774,113485
1166,513,7,130765,113488
1169,504,7,130768,113482
1171,506,7,130769,113472
1174,506,7,130763,113469
1176,502,7,130765,113478
1179,503,7,130766,113470
1181,502,7,130761,113473
1183,506,8,130767,113477
1186,508,7,130759,113475
1188,502,7,130760,113473
1191,500,7,130762,113473
1193,498,7,130757,113474
1197,503,7,130771,113475
1199,509,7,130763,113478
1202,509,7,130760,113477
1204,512,7,130777,113483
1206,512,8,130770,113478
1209,507,8,130777,113472
1211,502,7,130768,113486
1214,504,7,130767,113490
1216,505,7,130773,113476
1219,506,7,130773,113485
1221,506,8,130778,113478
1223,509,8,130780,113478
1226,509,7,130776,113482
1228,511,7,130773,113481
1231,512,7,130771,113481
1233,510,8,130768,113477
1236,509,7,130764,113475
1239,507,8,130762,113466
1242,509,8,130757,113466
1244,508,7,130765,113463
1246,508,8,130765,113461
1249,510,7,130751,113469
1251,508,7,130745,113469
1254,510,8,130749,113462
1256,509,8,130749,113466
1259,513,8,130750,113457
1261,515,8,130745,113453
1263,510,7,130739,113453
1266,507,8,130754,113467
1268,504,7,130754,113459
1271,504,7,130741,113457
1273,506,7,130744,113456
1276,505,7,130749,113460
1278,512,7,130741,113456
1282,513,8,130741,113458
1284,511,8,130748,113460
1286,503,7,130738,113459
1289,501,7,130739,113456
1291,498,8,130741,113456
1294,497,7,130746,113454
1296,496,7,130746,113448
1299,498,8,130732,113449
1301,497,8,130732,113449
1303,498,7,130738,113451
1306,499,8,130738,113442
1308,498,7,130736,113441
1311,499,8,130724,113443
1313,503,7,130722,113443
1316,503,7,130725,113437
1318,509,7,130725,113440
1321,512,7,130718,113434
1324,511,8,130715,113434
1326,506,7,130722,113438
1329,503,7,130730,113434
1331,501,7,130730,113434
1334,500,8,130723,113446
1336,500,8,130726,113450
1339,507,8,130737,113444
1341,509,7,130731,113444
1343,504,7,130742,113447
1346,501,7,130742,113444
1348,497,7,130738,113447
1351,497,7,130740,113452
1353,499,7,130739,113452
1356,501,8,130744,113457
1358,505,7,130744,113458
1361,501,7,130746,113450
1363,498,8,130746,113450
1366,500,7,130748,113456
1369,506,7,130748,113454
1371,516,7,130754,113453
1374,520,8,130746,113453
1376,519,8,130762,113452
1379,526,7,130762,113453
1381,528,7,130745,113459
1383,531,7,130717,113460
1386,538,7,130756,113460
1388,547,8,130761,113459
1391,556,7,130761,113463
1393,558,7,130761,113467
1396,553,7,130729,113467
1398,547,7,130766,113462
1551,511,7,130709,113426
1553,508,7,130710,113420
1556,509,7,130710,113420
1546,505,7,130709,113422
1548,508,7,130704,113418
1551,511,7,130709,113426
1553,508,7,130710,113420
1556,509,7,130710,113420
1548,508,7,130704,113418
1551,511,7,130709,113426
1553,508,7,130710,113420
1556,509,7,130710,113420
1558,508,7,130712,113421
1561,511,7,130710,113429
1563,510,7,130713,113431
1565,512,7,130718,113429
1568,512,7,130728,113428
1570,517,7,130716,113438
1573,518,7,130725,113432
1575,515,7,130732,113441
1579,515,7,130737,113433
1581,511,7,130748,113448
1583,514,7,130733,113441
1586,514,7,130742,113444
1588,509,7,130750,113447
1591,509,7,130758,113459
1593,508,7,130761,113458
1596,513,7,130760,113461
1598,517,7,130772,113467
1601,515,7,130777,113467
1603,515,7,130761,113463
1605,511,7,130770,113459
1608,512,7,130768,113465
1610,513,7,130765,113460
1613,515,7,130765,113462
1615,513,7,130760,113460
1618,513,7,130752,113460
1620,514,7,130753,113462
1623,520,7,130753,113457
1626,522,7,130753,113453
1628,517,7,130740,113450
1631,516,7,130734,113449
1633,513,7,130729,113446
1636,517,7,130728,113434
1638,521,7,130726,113437
1641,517,7,130708,113429
1643,516,7,130706,113440
1645,510,7,130695,113433
1648,509,7,130696,113431
1650,509,7,130699,113437
1653,510,7,130685,113434
1655,507,7,130682,113434
1658,507,7,130675,113430
1660,506,7,130675,113423
1662,510,7,130678,113423
1666,512,7,130678,113427
1668,508,7,130667,113425
1671,508,7,130665,113425
1673,503,7,130661,113430
1676,504,7,130660,113423
1678,508,7,130649,113423
1681,505,7,130646,113424
1683,508,7,130652,113410
1685,507,7,130644,113406
1688,501,7,130646,113409
1690,496,7,130639,113411
1693,498,8,130631,113407
1695,498,7,130636,113415
1698,500,7,130636,113409
1700,499,8,130645,113416
1702,502,7,130640,113416
1705,501,7,130649,113418
1708,503,7,130646,113411
1711,505,7,130649,113418
1713,503,7,130651,113413
1716,502,7,130652,113418
1718,500,7,130653,113421
1721,502,8,130655,113421
1723,500,8,130656,113427
1725,501,7,130656,113417
1728,504,7,130655,113417
1730,501,7,130656,113417
1733,504,8,130662,113426
1735,502,7,130662,113426
1738,507,7,130661,113413
1740,509,8,130659,113418
1742,506,7,130658,113418
1745,504,7,130665,113424
1747,502,7,130665,113412
1751,502,7,130648,113414
1753,505,7,130655,113409
1756,504,8,130650,113414
1758,510,7,130657,113403
1761,511,7,130657,113403
1763,510,8,130643,113408
1765,503,7,130644,113405
1768,503,7,130648,113402
1770,502,7,130640,113402
1773,506,7,130649,113396
1775,505,8,130649,113400
1778,506,7,130646,113401
1780,504,7,130648,113401
1782,505,7,130660,113409
1785,506,7,130660,113410
1787,505,7,130664,113404
1790,505,7,130661,113407
1793,508,7,130667,113407
1796,508,7,130678,113408
1798,512,7,130678,113409
1801,514,7,130666,113417
1803,513,7,130673,113417
1805,507,7,130670,113420
1808,505,7,130684,113420
1810,505,7,130684,113416
1813,506,7,130682,113415
1815,506,8,130679,113435
1818,510,8,130692,113427
1820,509,7,130689,113427
1822,506,7,130699,113428
1825,507,8,130699,113432
1827,505,7,130698,113434
1830,504,8,130697,113432
1832,507,8,130695,113432
1836,509,7,130693,113422
1838,513,7,130693,113426
1841,510,7,130702,113422
1843,508,7,130695,113422
1845,512,7,130695,113423
1848,511,7,130695,113427
1850,515,7,130696,113413
1853,514,8,130698,113413
1855,508,7,130696,113420
1858,507,7,130696,113410
1860,503,7,130682,113413
1862,502,7,130656,113408
1865,504,7,130687,113408
1867,508,7,130684,113411
1870,510,7,130684,113411
1872,515,7,130675,113406
1875,514,7,130675,113406
1878,510,7,130669,113403
1881,509,7,130669,113398
1883,508,7,130676,113398
1885,508,7,130675,113398
1888,508,7,130672,113401
1890,508,7,130668,113402
1893,508,7,130668,113407
1895,502,7,130677,113401
1898,501,7,130668,113401
1900,504,7,130683,113407
1902,507,7,130683,113399
1905,509,8,130682,113407
1907,510,7,130681,113407
1910,508,7,130680,113403
1912,504,7,130680,113407
1915,502,7,130682,113413
1917,509,7,130691,113405
1921,511,7,130685,113405
1923,511,7,130693,113408
1925,509,7,130693,113410
1928,508,8,130689,113416
1930,507,7,130686,113416
1933,505,8,130688,113420
1935,502,7,130688,113419
1938,498,8,130686,113414
1940,500,7,130688,113417
1942,501,7,130716,113417
1945,504,8,130698,113414
1947,506,7,130698,113424
1950,507,7,130693,113422
1952,510,7,130690,113422
1955,508,7,130690,113425
1957,507,8,130691,113422
1960,504,7,130691,113423
1963,506,7,130700,113422
1965,506,7,130698,113424
1968,503,7,130686,113424
1970,502,7,130712,113417
1973,506,7,130699,113421
1975,515,7,130690,113418
1978,513,7,130696,113421
1980,509,7,130687,113410
1982,506,7,130689,113406
1985,509,7,130692,113410
1987,513,8,130686,113411
1990,512,7,130682,113408
1992,509,7,130680,113402
1995,506,7,130676,113406
1997,510,8,130682,113403
2000,514,7,130679,113400
2002,512,7,130682,113397
2004,514,7,130668,113401
2008,517,7,130673,113402
2010,520,7,130666,113397
2013,521,7,130671,113402
2015,510,7,130677,113395
2018,510,7,130663,113393
2020,512,7,130662,113391
2022,514,7,130663,113392
2025,509,7,130671,113391
2027,505,7,130670,113392
2030,506,7,130663,113394
2032,505,7,130663,113393
2035,509,7,130671,113389
2037,507,7,130672,113394
2040,510,7,130655,113396
2042,508,7,130669,113387
2044,509,7,130674,113398
2048,507,7,130683,113397
2050,511,7,130659,113402
2053,512,7,130674,113404
2055,508,7,130671,113403
2058,505,7,130685,113399
2060,503,7,130684,113406
2062,508,7,130668,113406
2065,511,7,130682,113407
2067,507,7,130693,113409
2070,507,7,130687,113409
2072,505,7,130702,113408
2075,508,7,130695,113415
2077,512,7,130704,113419
2080,508,7,130693,113413
2082,508,7,130690,113415
2084,503,7,130688,113401
2087,502,7,130695,113411
2089,503,7,130685,113400
2093,506,7,130692,113408
2095,504,7,130684,113402
2098,504,7,130673,113407
2100,504,7,130673,113402
2102,509,7,130681,113393
2105,512,7,130669,113391
2107,507,7,130667,113385
2110,506,7,130665,113382
2112,504,7,130655,113393
2115,504,7,130655,113381
2117,510,7,130654,113388
2120,510,7,130651,113383
2122,513,7,130656,113382
2124,509,7,130642,113381
2127,507,7,130650,113383
2129,508,7,130653,113379
2132,510,7,130658,113385
2135,511,7,130645,113384
2138,515,7,130657,113390
2140,522,7,130658,113390
2142,528,7,130673,113395
2145,532,7,130675,113391
2147,528,7,130673,113393
2150,528,7,130672,113393
2152,535,7,130681,113399
2155,545,7,130680,113403
2157,558,7,130688,113397
2160,560,7,130682,113404
2162,563,7,130699,113407
2164,558,7,130684,113407
2167,547,7,130699,113412
2169,530,7,130694,113415
2172,509,7,130694,113410
2174,499,7,130695,113408
2178,496,7,130706,113414
2180,490,7,130706,113418
2182,492,7,130706,113418
2185,493,7,130711,113421
2187,488,7,130703,113416
2190,491,8,130716,113418
2192,496,7,130709,113415
2195,494,7,130715,113415
2197,502,7,130717,113418
2200,505,7,130717,113417
2202,505,7,130712,113427
2204,498,7,130715,113415
2207,496,7,130718,113416
2209,496,7,130715,113413
2212,501,7,130705,113415
2214,503,7,130708,113411
2217,504,7,130708,113411
2220,503,7,130696,113415
2222,505,7,130702,113415
2225,506,7,130699,113418
2227,508,7,130702,113411
2230,509,7,130694,113415
2232,506,7,130694,113410
2235,506,7,130698,113416
2237,503,7,130702,113408
2240,505,7,130705,113408
2242,505,7,130704,113412
2244,505,7,130704,113418
2247,507,7,130701,113411
2249,504,7,130706,113411
2252,507,7,130710,113417
2254,507,7,130710,113411
2257,510,7,130707,113409
2259,511,7,130697,113409
2262,507,7,130705,113422
2265,507,7,130705,113423
2267,505,7,130708,113416
2270,505,7,130707,113416
2272,509,7,130711,113416
2275,509,7,130707,113402
2277,514,7,130707,113408
2280,516,7,130701,113409
2282,515,7,130702,113409
2284,509,7,130697,113409
2287,507,7,130703,113409
2289,506,7,130703,113410
2292,507,7,130695,113407
2294,507,7,130687,113411
2297,514,7,130693,113399
2299,516,7,130683,113399
2301,512,7,130676,113401
2305,510,7,130676,113401
2307,506,7,130690,113395
2310,505,7,130676,113392
2312,508,7,130680,113392
2315,509,7,130681,113395
2317,513,7,130681,113394
2320,510,7,130678,113387
2322,509,7,130679,113387
2324,513,7,130687,113396
2327,512,7,130687,113402
2329,515,7,130689,113400
2332,516,7,130680,113400
2334,513,7,130692,113395
2337,514,7,130692,113397
2339,510,7,130689,113403
2341,508,7,130655,113407
2344,509,7,130697,113407
2347,514,7,130701,113409
2350,515,7,130701,113400
2352,517,7,130701,113413
2355,514,7,130675,113413
2357,512,7,130700,113411
2360,515,7,130700,113411
2362,522,7,130712,113418
2364,521,7,130717,113424
2367,517,7,130721,113426
2369,522,7,130721,113423
2372,524,7,130711,113423
2374,524,7,130708,113419
2377,515,7,130708,113416
2379,517,7,130708,113412
2381,516,7,130704,113412
2384,515,7,130699,113411
2386,510,7,130699,113402
2390,510,7,130693,113406
2392,516,7,130696,113406
2395,516,7,130680,113398
2397,515,7,130669,113405
2400,511,7,130669,113390
2402,515,7,130668,113382
2404,515,7,130653,113382
2407,514,7,130636,113377
2409,512,7,130636,113374
2412,513,7,130640,113376
2414,514,7,130632,113368
2417,513,7,130627,113366
2419,509,7,130616,113364
2421,506,7,130610,113364
2424,505,7,130616,113361
2426,501,7,130616,113354
2429,497,7,130586,113356
2432,502,7,130589,113359
2435,503,7,130596,113362
2437,501,7,130602,113365
2440,500,7,130602,113355
2442,500,7,130586,113361
2444,504,7,130582,113371
2447,506,7,130590,113367
2449,506,7,130589,113358
2452,509,7,130588,113363
2454,511,7,130574,113364
2457,508,7,130582,113361
2459,503,7,130580,113373
2461,499,7,130594,113370
2464,503,7,130594,113362
2466,507,7,130595,113371
2469,506,7,130588,113374
2471,505,7,130593,113370
2475,502,7,130602,113375
2477,504,7,130607,113375
2480,507,7,130605,113373
2482,503,7,130593,113366
2484,503,7,130590,113370
2487,504,7,130596,113373
2489,506,7,130595,113373
2492,508,7,130607,113368
2494,499,7,130600,113365
2497,499,7,130585,113365
2499,504,7,130594,113358
2501,507,7,130592,113373
2504,502,7,130604,113366
2506,499,7,130608,113369
2509,499,7,130606,113372
2511,498,7,130611,113371
2514,503,7,130620,113375
2516,504,7,130610,113386
2520,507,7,130621,113389
2522,505,7,130629,113389
2524,506,7,130634,113388
2527,506,7,130638,113389
2529,511,7,130626,113391
2532,513,7,130640,113392
2534,510,7,130643,113391
2537,508,7,130650,113392
2539,507,7,130655,113394
2541,510,7,130641,113402
2544,512,7,130658,113393
2546,508,7,130652,113404
2549,508,7,130652,113396
2551,507,7,130661,113408
2554,511,7,130655,113403
2556,514,7,130680,113407
2560,510,7,130671,113405
2562,509,7,130659,113408
2564,504,7,130674,113406
2567,504,7,130676,113414
2569,505,7,130675,113410
2572,507,7,130680,113412
2574,507,7,130679,113415
2577,508,7,130667,113416
2579,507,7,130677,113415
2581,512,7,130678,113415
2584,515,7,130675,113409
2586,511,7,130674,113403
2589,511,7,130674,113410
2591,508,7,130671,113413
2594,513,7,130663,113400
2596,517,7,130679,113415
2599,513,7,130667,113409
2601,512,7,130681,113411
2604,506,7,130675,113413
2607,506,7,130685,113425
2609,506,7,130687,113423
2612,508,7,130693,113420
2614,507,7,130701,113433
2617,510,7,130696,113431
2619,510,7,130706,113433
2621,513,7,130704,113435
2624,515,7,130711,113436
2626,508,7,130714,113430
2629,506,7,130699,113430
2631,504,7,130707,113433
2634,508,7,130712,113432
2636,514,7,130710,113432
2639,513,7,130706,113437
2641,517,7,130705,113433
2643,517,7,130702,113420
2647,511,7,130698,113419
2649,504,7,130688,113424
2652,504,7,130703,113423
2654,507,7,130696,113428
2657,509,7,130705,113428
2659,509,7,130710,113435
2661,513,7,130721,113442
2664,514,7,130736,113452
2666,508,7,130732,113450
2669,510,7,130745,113453
2671,512,7,130743,113455
2674,508,7,130756,113455
2676,511,7,130752,113457
2679,512,7,130752,113461
2681,512,7,130753,113476
2683,502,7,130747,113460
2686,500,7,130761,113457
2689,500,7,130748,113450
2692,506,7,130738,113452
2694,508,7,130751,113440
2697,511,7,130751,113444
2699,510,7,130731,113442
2701,512,7,130724,113442
2704,511,7,130731,113436
2706,512,7,130725,113436
2709,512,7,130730,113449
2711,510,7,130724,113431
2714,509,7,130727,113434
2716,507,7,130717,113433
2719,508,7,130719,113433
2721,507,7,130716,113434
2723,508,7,130716,113439
2726,510,7,130718,113442
2728,508,7,130718,113442
2732,511,7,130727,113436
2734,512,7,130727,113429
2737,516,7,130723,113434
2739,516,7,130715,113434
2741,511,7,130715,113431
2744,509,7,130721,113439
2746,507,7,130721,113439
2749,508,7,130721,113438
2751,511,7,130721,113438
2754,511,7,130734,113440
2756,518,7,130734,113434
2759,519,7,130724,113442
2761,514,7,130718,113442
2763,510,7,130731,113442
2766,515,7,130723,113443
2768,515,7,130723,113443
2771,516,7,130736,113446
2774,514,7,130736,113448
2777,520,7,130744,113445
2779,521,7,130726,113445
2781,516,7,130728,113442
2784,512,7,130728,113443
2786,507,7,130735,113436
2789,505,7,130734,113445
2791,508,7,130736,113445
2794,510,7,130733,113445
2796,515,7,130733,113444
2799,511,7,130733,113442
2801,509,8,130740,113442
2803,512,7,130737,113449
2806,511,7,130737,113454
2808,514,7,130736,113447
2811,513,7,130747,113447
2813,507,7,130743,113448
2817,505,7,130743,113439
2819,501,7,130750,113448
2821,498,7,130717,113449
2824,499,7,130754,113449
2826,504,7,130756,113449
2829,504,7,130756,113453
2831,509,7,130755,113453
2834,508,7,130749,113453
2836,504,7,130753,113445
2839,506,7,130758,113453
2841,503,7,130758,113443
2843,507,7,130755,113447
2846,507,7,130747,113447
2848,503,7,130748,113458
2851,501,7,130748,113451
2853,502,7,130746,113449
2856,504,7,130753,113449
2859,506,7,130746,113458
2861,504,7,130746,113439
2864,508,7,130749,113447
2866,510,7,130753,113452
2869,508,7,130751,113452
2871,503,7,130751,113446
2874,504,7,130752,113446
2876,507,7,130752,113453
2879,505,7,130757,113453
2881,504,7,130769,113446
2883,501,7,130769,113452
2886,501,7,130764,113460
2888,505,7,130766,113460
2891,504,7,130766,113462
2893,502,7,130766,113459
2896,500,7,130772,113457
2898,505,7,130774,113464
2900,507,7,130794,113464
2904,511,7,130772,113470
2906,516,7,130772,113475
2909,520,7,130774,113472
2911,531,7,130773,113472
2914,536,7,130777,113468
2916,539,7,130772,113476
2919,545,7,130772,113464
2921,551,7,130773,113465
2923,550,7,130797,113470
2926,546,7,130778,113468
2928,538,7,130788,113468
2931,536,7,130763,113460
2933,530,7,130776,113465
2936,515,7,130776,113461
2938,501,7,130772,113462
2940,495,7,130765,113460
2944,490,7,130773,113464
2946,491,7,130775,113461
2949,493,7,130763,113464
2951,496,7,130770,113460
2954,497,7,130779,113467
2956,491,7,130768,113474
2959,489,7,130781,113471
2961,490,7,130777,113474
2963,492,7,130778,113472
2966,501,7,130787,113470
2968,504,7,130786,113467
2971,503,7,130767,113473
2973,499,7,130775,113465
2976,498,7,130780,113470
2978,501,7,130782,113466
2980,500,7,130782,113468
2983,500,7,130766,113473
2985,496,7,130779,113469
2989,497,7,130782,113462
2991,502,7,130768,113469
2994,499,7,130778,113465
2996,499,7,130788,113475
2999,502,7,130778,113469
3001,501,7,130775,113466
3003,504,7,130779,113468
3006,503,7,130782,113460
3008,507,7,130774,113459
3011,508,7,130770,113461
3013,505,7,130769,113463
3016,504,7,130775,113464
3018,503,7,130778,113460
3020,508,7,130758,113462
3023,510,7,130769,113458
3025,506,7,130778,113459
3028,506,7,130762,113453
3031,504,7,130764,113459
3034,508,7,130755,113459
3036,511,7,130767,113458
3039,508,7,130760,113457
3041,507,7,130758,113447
3043,503,7,130756,113444
3046,503,7,130752,113448
3048,504,7,130739,113438
3051,506,7,130747,113443
3053,505,7,130741,113440
3056,509,7,130734,113430
3058,508,7,130730,113430
3060,511,7,130741,113447
3063,513,7,130751,113440
3065,508,7,130751,113446
3068,509,7,130742,113443
3070,505,7,130746,113449
3074,507,7,130751,113441
3076,512,7,130754,113452
3079,510,7,130747,113441
3081,511,7,130742,113461
3083,507,7,130745,113446
3086,508,7,130752,113449
3088,508,7,130750,113451
3091,510,7,130747,113447
3093,509,7,130740,113440
3096,513,7,130748,113447
3098,512,7,130740,113450
3100,516,7,130757,113447
3103,517,7,130752,113454
3105,510,7,130751,113447
3108,506,7,130753,113451
3110,506,7,130753,113446
3113,513,7,130751,113453
3116,519,7,130751,113454
3119,515,7,130744,113453
3121,517,7,130752,113444
3123,517,7,130747,113452
3126,511,7,130754,113451
3128,506,7,130742,113449
3131,510,7,130743,113441
3133,512,7,130750,113440
3136,514,7,130742,113432
3138,513,7,130746,113438
3140,515,7,130729,113438
3143,511,7,130746,113444
3145,512,7,130738,113435
3148,516,7,130727,113437
3150,515,7,130733,113433
3153,515,7,130737,113430
3155,513,7,130733,113441
3159,515,7,130728,113441
3161,512,7,130732,113448
3163,512,7,130732,113438
3166,513,7,130727,113438
3168,510,7,130716,113438
3171,513,7,130722,113434
3173,512,7,130721,113443
3176,515,7,130721,113440
3178,518,7,130697,113452
3180,512,7,130699,113452
3183,506,7,130707,113443
3185,511,7,130707,113437
3188,513,7,130691,113441
3190,508,7,130694,113435
3193,506,7,130695,113438
3195,506,7,130693,113441
3198,506,7,130693,113443
3201,503,7,130681,113430
3203,502,7,130681,113445
3206,501,7,130687,113439
3208,498,7,130674,113439
3211,500,7,130681,113440
3213,499,7,130681,113432
3216,500,7,130677,113432
3218,498,7,130662,113425
3220,498,7,130648,113425
3223,496,7,130650,113412
3225,498,7,130650,113412
3228,500,7,130647,113413
3230,497,7,130646,113413
3233,500,7,130646,113423
3235,500,7,130653,113413
3238,504,7,130649,113413
3240,507,7,130659,113417
3243,500,7,130659,113423
3246,496,7,130662,113426
3248,502,7,130662,113431
3251,506,7,130667,113431
3253,506,7,130666,113431
3256,501,7,130668,113441
3258,501,7,130685,113425
3260,499,7,130681,113425
3263,496,7,130681,113437
3265,500,7,130676,113437
3268,507,7,130676,113430
3270,505,7,130676,113437
3273,508,7,130678,113437
3275,510,7,130678,113432
3278,505,7,130692,113433
3280,502,7,130688,113433
3282,505,7,130689,113430
3286,506,7,130689,113432
3288,510,7,130681,113429
3291,511,7,130693,113429
3293,507,7,130692,113427
3296,509,7,130698,113435
3298,508,7,130698,113440
3300,510,7,130689,113434
3303,507,7,130697,113447
3305,507,7,130697,113438
3308,508,7,130700,113438
3310,505,7,130716,113441
3313,507,7,130716,113441
3315,505,7,130706,113450
3318,505,7,130674,113441
3320,507,7,130715,113441
3322,512,7,130712,113437
3325,510,7,130712,113435
3328,511,7,130700,113429
3331,507,7,130664,113429
3333,505,7,130702,113434
3336,512,7,130702,113433
3338,513,7,130688,113431
3340,513,7,130680,113431
3343,513,7,130659,113420
3345,509,7,130675,113419
3348,508,7,130675,113415
3350,504,7,130674,113414
3353,503,7,130661,113414
3355,505,7,130683,113412
3358,511,7,130683,113413
3360,510,7,130672,113418
3362,510,7,130672,113418
3365,511,7,130680,113406
3367,510,7,130680,113415
3371,511,7,130668,113420
3373,513,7,130679,113420
3376,512,7,130684,113421
3378,510,7,130693,113423
3380,506,7,130685,113423
3383,504,7,130710,113419
3385,499,7,130710,113413
3388,496,7,130679,113417
3390,504,7,130687,113414
3393,506,7,130693,113414
3395,510,7,130691,113415
3398,509,7,130702,113425
3400,509,7,130698,113429
3402,511,7,130682,113429
3405,511,7,130702,113430
3407,510,7,130702,113432
3410,506,7,130708,113432
3412,508,7,130713,113439
3416,508,7,130722,113435
3418,507,7,130707,113442
3420,507,7,130721,113436
3423,510,7,130736,113451
3425,512,7,130721,113444
3428,510,7,130729,113450
3430,506,7,130731,113443
3433,506,7,130730,113453
3435,511,7,130737,113446
3438,515,7,130735,113447
3440,509,7,130717,113447
3442,506,7,130727,113436
3445,506,7,130729,113446
3447,505,7,130718,113438
3450,504,7,130723,113447
3452,509,7,130717,113434
3456,510,7,130708,113442
3458,507,7,130719,113437
3460,504,7,130712,113433
3463,506,7,130708,113425
3465,506,7,130705,113426
3468,505,7,130690,113424
3470,500,7,130696,113414
3473,501,7,130695,113421
3475,499,7,130692,113422
3478,502,7,130698,113421
3480,500,7,130700,113427
3482,499,7,130695,113422
3485,500,7,130688,113424
3487,506,7,130688,113418
3490,509,7,130690,113428
3492,506,7,130696,113420
3495,505,7,130696,113423
3497,505,7,130698,113417
3500,508,7,130681,113419
3503,511,7,130683,113408
3505,507,7,130690,113416
3508,506,7,130694,113418
3510,504,7,130697,113421
3513,508,7,130684,113420
3515,512,7,130693,113417
3518,509,7,130699,113421
3520,509,7,130686,113413
3522,505,7,130696,113424
3525,505,7,130700,113415
3527,507,7,130694,113420
3530,511,7,130697,113419
3532,511,7,130686,113419
3535,515,7,130680,113419
3537,513,7,130694,113416
3539,516,7,130687,113417
3543,516,7,130686,113417
3545,510,7,130693,113424
3548,510,7,130675,113415
3550,508,7,130678,113422
3553,512,7,130690,113414
3555,517,7,130692,113410
3558,514,7,130686,113415
3560,515,7,130675,113412
3562,509,7,130681,113410
3565,510,7,130677,113414
3567,510,7,130687,113421
3570,512,7,130674,113413
3572,510,7,130678,113412
3575,514,7,130681,113411
3577,514,7,130672,113403
3579,519,7,130673,113401
3582,520,7,130669,113403
3585,513,7,130657,113398
3588,512,7,130659,113405
3590,510,7,130656,113397
3593,514,7,130661,113394
3595,518,7,130660,113396
3598,514,7,130658,113392
3600,516,7,130653,113390
3602,514,7,130652,113382
3605,507,7,130651,113385
3607,501,7,130647,113385
3610,503,7,130644,113379
3612,504,7,130645,113385
3615,506,7,130636,113376
3617,507,7,130644,113382
3619,510,7,130653,113375
3622,511,7,130651,113386
3624,502,7,130642,113380
3628,504,7,130645,113376
3630,507,7,130643,113385
3633,503,7,130645,113388
3635,505,7,130647,113383
3638,507,7,130650,113389
3640,506,7,130652,113393
3642,502,7,130664,113387
3645,501,7,130664,113393
3647,507,7,130667,113383
3650,508,7,130662,113391
3652,504,7,130665,113391
3655,508,7,130674,113397
3657,511,7,130663,113397
3659,507,7,130669,113397
3662,503,7,130670,113399
3664,501,7,130677,113395
3667,503,7,130667,113402
3670,504,7,130671,113390
3673,505,7,130677,113395
3675,505,7,130665,113397
3678,508,7,130668,113397
3680,508,7,130677,113391
3682,508,7,130677,113394
3685,509,7,130682,113409
3687,506,7,130678,113409
3690,507,7,130680,113400
3692,506,7,130680,113399
3695,512,7,130684,113397
3697,515,7,130682,113401
3699,513,7,130686,113401
3702,516,7,130678,113410
3704,515,7,130678,113401
3707,519,7,130681,113411
3709,526,7,130681,113411
3713,531,7,130693,113410
3715,549,7,130693,113404
3718,559,7,130695,113410
3720,560,7,130682,113403
3722,558,7,130691,113403
3725,548,7,130684,113406
3727,547,7,130684,113402
3730,540,7,130691,113408
3732,520,7,130697,113412
3735,512,7,130694,113410
3737,506,7,130695,113410
3739,497,7,130703,113418
3742,490,7,130707,113417
3744,487,7,130707,113417
3747,488,7,130706,113424
3749,486,7,130700,113424
3752,491,7,130705,113423
3755,495,7,130705,113418
3758,502,7,130707,113420
3760,502,7,130710,113428
3762,501,7,130710,113425
3765,501,7,130709,113425
3767,497,7,130718,113422
3770,500,7,130710,113420
3772,499,7,130710,113425
3775,505,7,130708,113422
3777,507,7,130719,113422
3779,504,7,130715,113422
3782,502,7,130715,113416
3784,497,7,130720,113426
3787,497,7,130727,113426
3789,502,7,130723,113421
3792,505,7,130723,113424
3794,511,7,130736,113433
3798,510,7,130722,113427
3800,506,7,130732,113427
3802,506,7,130726,113432
3805,503,7,130726,113435
3807,508,7,130729,113435
3810,508,7,130722,113435
3812,506,7,130722,113425
3815,509,7,130740,113428
3817,510,7,130731,113428
3819,506,7,130724,113431
3822,504,7,130724,113427
3824,499,7,130724,113428
3827,499,7,130726,113428
3829,506,7,130718,113427
3832,507,7,130718,113430
3834,511,7,130722,113423
3837,516,7,130725,113423
3840,515,7,130709,113422
3842,512,7,130710,113422
3845,504,7,130710,113424
3847,508,7,130722,113419
3850,510,7,130711,113419
3852,510,7,130707,113422
3855,510,7,130714,113422
3857,511,7,130730,113418
3859,508,7,130730,113421
3862,509,7,130714,113414
3864,509,7,130708,113414
3867,508,7,130706,113412
3869,506,7,130706,113421
3872,503,7,130703,113406
3874,506,7,130705,113417
3877,507,7,130720,113414
3879,510,7,130697,113409
3881,511,7,130695,113409
3885,508,7,130699,113406
3887,508,7,130702,113406
3890,511,7,130707,113416
3892,511,7,130707,113414
3895,507,7,130701,113416
3897,509,7,130695,113414
3899,509,7,130714,113425
3902,510,7,130704,113417
3904,510,7,130709,113416
3907,508,7,130710,113417
3909,513,7,130712,113421
3912,515,7,130710,113420
3914,516,7,130716,113424
3917,511,7,130718,113427
3919,505,7,130727,113421
3921,504,7,130728,113435
3924,508,7,130721,113437
3927,513,7,130737,113427
3930,516,7,130735,113433
3932,509,7,130726,113438
3935,509,7,130738,113437
3937,509,7,130729,113429
3939,511,7,130728,113435
3942,517,7,130735,113433
3944,517,7,130731,113434
3947,516,7,130715,113427
3949,511,7,130715,113418
3952,511,7,130714,113422
3954,515,7,130709,113423
3957,516,7,130705,113416
3959,511,7,130701,113418
3961,510,7,130698,113412
3964,514,7,130678,113408
3966,515,7,130676,113406
3970,513,7,130658,113406
3972,509,7,130659,113394
3975,506,7,130659,113404
3977,506,7,130657,113398
3979,511,7,130633,113397
3982,514,7,130638,113389
3984,508,7,130623,113384
3987,506,7,130625,113382
3989,503,7,130618,113384
3992,506,7,130597,113386
3994,510,7,130604,113390
3997,506,7,130595,113379
3999,505,7,130594,113385
4001,500,7,130601,113387
4004,499,7,130597,113378
4006,500,7,130588,113379
4009,502,7,130581,113377
4012,501,7,130572,113375
4015,504,7,130572,113377
4017,503,7,130580,113371
4019,507,7,130589,113378
4022,508,7,130590,113376
4024,502,7,130577,113376
4027,501,7,130584,113376
4029,497,7,130579,113377
4032,501,7,130588,113386
4034,507,7,130588,113378
4037,506,7,130594,113383
4039,508,7,130599,113381
4041,504,7,130591,113382
4044,503,7,130601,113391
4046,503,7,130605,113389
4049,505,7,130611,113389
4051,504,7,130614,113388
4055,508,7,130620,113398
4057,507,7,130615,113401
4059,511,7,130632,113400
4062,513,7,130626,113403
4064,506,7,130627,113407
4067,505,7,130642,113409
4069,503,7,130639,113409
4072,507,7,130647,113414
4074,511,7,130651,113415
4077,506,7,130650,113412
4079,509,7,130648,113406
4081,508,7,130646,113412
4084,503,7,130656,113410
4086,498,7,130652,113415
4089,502,7,130648,113416
4091,503,7,130662,113413
4094,505,7,130659,113413
4097,505,7,130656,113417
4099,508,7,130660,113417
4102,506,7,130654,113419
4104,508,7,130655,113404
4107,509,7,130647,113408
4109,507,7,130653,113407
4112,505,7,130649,113402
4114,506,7,130650,113404
4117,508,7,130650,113404
4119,506,7,130649,113410
4121,506,7,130655,113409
4124,504,7,130661,113411
4126,502,7,130652,113416
4129,506,7,130669,113419
4131,507,7,130665,113410
4134,508,7,130665,113419
4136,508,7,130667,113417
4139,510,7,130673,113417
4142,509,7,130674,113419
4144,510,7,130674,113417
4147,511,7,130660,113414
4149,509,7,130670,113413
4152,508,7,130672,113413
4154,505,7,130655,113402
4157,507,7,130658,113402
4159,507,7,130661,113398
4161,507,7,130658,113398
4164,508,7,130653,113393
4166,506,7,130653,113391
4169,507,7,130648,113393
4171,507,7,130647,113385
4174,512,7,130651,113395
4176,514,7,130652,113401
4178,510,7,130653,113401
4182,506,7,130659,113410
4184,503,7,130659,113396
4187,503,7,130651,113391
4189,502,7,130655,113391
4192,506,7,130653,113400
4194,507,7,130664,113402
4197,510,8,130656,113402
4199,515,7,130666,113402
4201,508,7,130666,113397
4204,504,7,130656,113397
4206,508,7,130656,113395
4209,513,7,130663,113400
4211,513,8,130654,113400
4214,508,7,130656,113402
4216,508,7,130660,113395
4218,507,7,130662,113395
4221,504,7,130655,113389
4224,507,7,130653,113389
4227,512,7,130655,113398
4229,507,7,130655,113400
4232,509,7,130655,113394
4234,510,7,130658,113394
4237,506,7,130659,113395
4239,505,7,130659,113393
4241,500,7,130663,113398
4244,497,7,130659,113398
4246,500,7,130675,113400
4249,505,7,130675,113410
4251,512,7,130673,113407
4254,516,7,130679,113412
4256,517,7,130684,113412
4258,514,7,130682,113412
4261,515,7,130682,113417
4263,510,7,130694,113421
4267,508,7,130679,113421
4269,513,7,130692,113416
4272,514,7,130693,113422
4274,519,7,130693,113416
4277,516,7,130687,113417
4279,514,7,130685,113417
4281,517,7,130686,113421
4284,515,7,130686,113412
4286,518,7,130684,113411
4289,519,7,130675,113411
4291,515,7,130686,113408
4294,517,7,130686,113407
4296,514,7,130673,113398
4298,512,7,130636,113398
4301,513,7,130667,113396
4303,514,7,130667,113391
4306,513,7,130650,113390
4308,514,7,130647,113393
4312,514,7,130650,113393
4314,513,7,130650,113387
4317,512,7,130648,113387
4319,511,7,130645,113385
4321,510,7,130645,113377
4324,512,7,130636,113386
4326,510,7,130645,113377
4329,506,7,130636,113377
4331,503,7,130636,113389
4334,506,7,130653,113389
4336,510,7,130648,113391
4338,511,7,130648,113388
4341,512,7,130649,113383
4343,510,7,130644,113383
4346,507,7,130669,113388
4348,502,7,130669,113402
4352,499,7,130657,113401
4354,507,8,130664,113404
4357,509,7,130675,113404
4359,510,7,130662,113404
4361,509,7,130662,113402
4364,509,7,130664,113398
4366,509,7,130662,113398
4369,508,7,130678,113408
4371,505,7,130678,113406
4374,503,7,130661,113396
4376,510,7,130665,113399
4378,512,7,130668,113398
4381,513,7,130664,113399
4383,511,7,130660,113392
4386,505,7,130679,113401
4388,509,7,130661,113391
4391,512,7,130653,113386
4393,514,7,130655,113382
4397,511,7,130655,113387
4399,500,7,130651,113382
4401,500,7,130651,113383
4404,504,7,130635,113382
4406,508,7,130648,113378
4409,512,7,130648,113373
4411,504,7,130642,113381
4414,500,8,130640,113380
4416,498,7,130641,113375
4418,497,7,130642,113380
4421,506,7,130644,113378
4423,507,7,130658,113376
4426,506,7,130642,113386
4428,501,7,130645,113376
4431,497,7,130647,113380
4433,496,7,130645,113383
4436,502,7,130659,113382
4439,503,7,130653,113379
4441,504,7,130660,113377
4444,511,7,130643,113371
4446,514,7,130654,113381
4449,514,7,130665,113386
4451,511,7,130660,113382
4454,505,7,130664,113389
4456,507,7,130669,113390
4458,509,7,130652,113387
4461,510,7,130661,113384
4463,505,7,130664,113389
4466,501,7,130661,113390
4468,501,7,130665,113384
4471,502,7,130666,113394
4473,502,7,130664,113386
4476,506,7,130675,113385
4478,505,7,130678,113392
4481,508,7,130663,113391
4484,509,7,130675,113387
4486,504,7,130668,113394
4489,505,7,130673,113395
4491,503,7,130684,113395
4494,507,7,130677,113391
4496,509,7,130682,113399
4498,505,7,130685,113402
4501,505,7,130676,113405
4503,501,7,130673,113393
4506,504,7,130677,113390
4508,509,7,130677,113398
4511,516,7,130680,113397
4513,519,7,130676,113400
4516,528,7,130672,113398
4518,530,7,130666,113395
4520,536,7,130670,113392
4524,544,7,130669,113390
4526,546,7,130670,113390
4529,551,7,130668,113400
4531,549,7,130677,113397
4534,550,7,130694,113396
4536,548,7,130689,113405
4538,540,7,130686,113401
4541,530,7,130695,113408
4543,510,7,130691,113413
4546,495,7,130696,113420
4548,492,7,130699,113419
4551,492,7,130699,113419
4553,490,7,130701,113422
4556,490,7,130704,113420
4558,489,7,130710,113416
4560,494,7,130718,113423
4563,498,7,130713,113424
4566,497,7,130711,113429
4569,500,7,130710,113429
4571,499,7,130712,113430
4574,503,7,130711,113423
4576,506,7,130713,113426
4578,504,7,130719,113423
4581,498,7,130719,113432
4583,495,7,130725,113424
4586,494,7,130721,113439
4588,500,7,130724,113433
4591,501,7,130734,113433
4593,509,7,130733,113440
4596,510,7,130732,113433
4598,509,7,130729,113445
4600,506,7,130742,113440
4603,502,7,130737,113435
4605,496,7,130731,113439
4609,497,7,130736,113435
4611,501,7,130740,113430
4614,504,7,130731,113431
4616,506,7,130731,113443
4618,505,7,130722,113443
4621,505,7,130727,113428
4623,506,7,130720,113418
4626,508,7,130706,113420
4628,507,7,130710,113408
4631,508,7,130699,113414
4633,507,7,130700,113408
4636,506,7,130702,113408
4638,504,7,130690,113404
4640,505,7,130690,113405
4643,507,7,130693,113395
4645,503,7,130678,113395
4648,500,7,130683,113406
4651,504,7,130683,113401
4654,508,7,130680,113388
4656,511,7,130676,113387
4658,511,7,130676,113387
4661,510,7,130679,113391
4663,508,7,130679,113387
4666,507,7,130667,113392
4668,509,7,130674,113392
4671,508,7,130678,113400
4673,509,7,130678,113388
4676,513,7,130678,113393
4678,513,7,130687,113397
4680,508,7,130681,113397
4683,505,7,130687,113395
4685,505,7,130687,113396
4688,507,7,130678,113393
4690,506,7,130678,113392
4694,510,7,130691,113392
4696,513,7,130678,113393
4698,512,7,130679,113393
4701,512,7,130686,113394
4703,510,7,130686,113401
4706,509,7,130691,113398
4708,507,7,130687,113398
4711,505,7,130680,113401
4713,510,7,130680,113398
4716,515,7,130688,113399
4718,518,7,130688,113399
4720,517,7,130705,113408
4723,512,7,130706,113405
4725,509,7,130698,113405
4728,511,7,130698,113405
4730,516,7,130692,113405
4733,521,7,130694,113406
4736,516,7,130694,113397
4738,516,7,130687,113401
4741,517,7,130691,113401
4743,513,7,130695,113405
4746,508,7,130695,113398
4748,506,7,130695,113400
4751,506,7,130686,113396
4753,509,7,130688,113396
4756,514,7,130679,113402
4758,517,7,130679,113402
4760,515,7,130690,113397
4763,513,7,130675,113395
4765,520,7,130675,113401
4768,522,7,130678,113401
4770,521,7,130671,113395
4773,519,7,130671,113385
4775,520,7,130672,113376
4777,518,7,130657,113375
4781,513,7,130619,113375
4783,508,7,130647,113384
4786,512,7,130647,113375
4788,512,7,130631,113375
4791,512,7,130627,113372
4793,510,7,130622,113375
4796,506,7,130606,113375
4798,506,7,130609,113365
4800,504,7,130609,113366
4803,505,7,130595,113364
4805,507,7,130591,113364
4808,509,7,130591,113364
4810,507,7,130586,113357
4813,500,7,130586,113358
4815,498,7,130570,113357
4817,500,7,130578,113357
4820,504,7,130579,113349
4823,506,7,130579,113350
4826,504,7,130572,113350
4828,505,7,130563,113355
4831,506,7,130573,113355
4833,509,7,130571,113362
4836,508,7,130571,113361
4838,508,7,130582,113360
4840,505,7,130574,113360
4843,503,7,130588,113367
4845,500,7,130588,113362
4848,496,7,130581,113364
4850,498,7,130596,113372
4853,499,7,130614,113372
4855,501,7,130610,113367
4857,502,7,130610,113364
4860,500,7,130597,113368
4862,503,7,130601,113375
4866,503,7,130618,113374
4868,502,7,130620,113366
4871,508,7,130602,113373
4873,511,7,130611,113382
4876,511,7,130605,113375
4878,508,7,130624,113377
4880,508,7,130624,113379
4883,511,7,130613,113382
4885,505,7,130615,113384
4888,505,7,130629,113383
4890,509,7,130627,113383
4893,508,7,130613,113377
4895,506,7,130632,113373
4897,505,7,130618,113384
4900,509,7,130621,113377
4902,509,7,130623,113382
4905,508,7,130615,113380
4908,504,7,130616,113370
4911,500,7,130619,113369
4913,503,7,130607,113361
4916,506,7,130609,113368
4918,505,7,130611,113361
4920,505,7,130606,113358
4923,505,7,130587,113345
4925,508,7,130591,113347
4928,512,7,130584,113346
4930,510,7,130581,113341
4933,510,7,130585,113339
4935,509,7,130572,113344
4937,511,7,130577,113341
4940,514,7,130578,113340
4942,511,7,130580,113336
4945,509,7,130578,113345
4947,505,7,130586,113337
4951,505,7,130573,113341
4953,508,7,130581,113336
4956,512,7,130587,113346
4958,512,7,130582,113343
4960,510,7,130598,113345
4963,508,7,130598,113348
4965,511,7,130589,113356
4968,514,7,130605,113355
4970,512,7,130595,113358
4973,508,7,130606,113358
4975,509,7,130617,113358
4977,512,7,130614,113366
4980,514,7,130621,113363
4982,510,7,130625,113366
4985,507,7,130613,113367
4987,503,7,130615,113363
4990,505,7,130619,113369
4993,510,7,130629,113369
4996,512,7,130623,113363
4998,511,7,130619,113366
5000,507,7,130625,113374
5003,509,7,130621,113370
5005,509,7,130616,113377
5008,512,7,130611,113356
5010,512,7,130621,113370
5013,509,7,130612,113352
5015,511,7,130601,113360
5017,508,7,130603,113352
5020,506,7,130598,113350
5022,507,7,130605,113351
5025,510,7,130591,113350
5027,517,7,130597,113352
5030,519,7,130596,113344
5032,517,7,130590,113351
5036,513,7,130594,113349
5038,507,7,130594,113357
5040,509,7,130612,113353
5043,512,7,130606,113354
5045,509,7,130597,113357
5048,509,7,130602,113357
5050,505,7,130613,113363
5053,508,7,130619,113358
5055,512,7,130611,113360
5057,509,7,130611,113361
5060,507,7,130624,113363
5062,508,7,130624,113363
5065,508,7,130619,113361
5067,505,7,130628,113374
5070,503,7,130625,113374
5072,505,7,130636,113377
5075,510,7,130636,113377
5078,512,7,130635,113374
5080,510,7,130634,113376
5083,511,7,130628,113367
5085,508,7,130627,113364
5088,507,7,130623,113366
5090,512,7,130628,113370
5093,511,7,130621,113367
5095,515,7,130613,113365
5097,516,7,130620,113361
5100,516,7,130613,113358
5102,509,7,130608,113356
5105,509,7,130611,113360
5107,511,7,130609,113352
5110,508,7,130604,113348
5112,509,7,130605,113352
5115,512,7,130602,113353
5117,514,7,130600,113351
5120,511,7,130599,113351
5123,504,7,130600,113346
5125,503,7,130591,113337
5128,505,7,130599,113353
5130,505,7,130604,113348
5133,510,7,130603,113345
5135,515,7,130606,113344
5137,513,7,130604,113344
5140,514,7,130608,113359
5142,510,7,130608,113356
5145,512,7,130621,113355
5147,513,7,130618,113355
5150,511,7,130627,113356
5152,506,7,130627,113363
5155,505,7,130623,113362
5157,504,7,130622,113366
5159,509,7,130622,113371
5163,512,7,130625,113363
5165,511,7,130620,113363
5168,509,7,130623,113361
5170,509,7,130623,113370
5173,513,7,130630,113367
5175,512,7,130624,113369
5177,512,7,130639,113369
5180,516,7,130641,113370
5182,515,7,130641,113369
5185,513,7,130625,113370
5187,510,7,130624,113370
5190,506,7,130628,113374
5192,509,7,130628,113368
5195,513,7,130630,113367
5197,515,7,130623,113367
5199,513,7,130627,113364
5202,507,7,130629,113362
5204,504,7,130621,113362
5208,502,7,130626,113355
5210,505,7,130626,113361
5213,506,7,130629,113363
5215,503,7,130622,113363
5217,502,7,130627,113361
5220,504,7,130627,113357
5222,499,7,130626,113361
5225,497,7,130624,113355
5227,503,7,130624,113370
5230,506,7,130607,113351
5232,504,7,130631,113351
5235,508,7,130628,113362
5237,504,7,130628,113357
5239,505,7,130636,113362
5242,506,7,130626,113362
5244,503,7,130637,113361
5248,502,7,130637,113362
5250,502,7,130640,113362
5253,505,7,130640,113372
5255,511,7,130646,113372
5257,516,7,130658,113375
5260,506,7,130658,113385
5262,505,7,130656,113380
5265,506,7,130653,113380
5267,503,7,130661,113386
5270,502,7,130661,113380
5272,502,7,130668,113387
5275,505,7,130661,113387
5277,509,7,130654,113386
5279,509,7,130654,113381
5282,511,7,130663,113382
5284,509,7,130662,113384
5287,506,7,130660,113382
5289,510,7,130660,113384
5293,513,7,130657,113384
5295,518,7,130667,113384
5297,521,7,130667,113373
5300,524,7,130656,113373
5302,529,7,130656,113369
5305,529,7,130656,113362
5307,535,7,130636,113362
5310,538,7,130650,113365
5312,539,7,130650,113356
5315,551,7,130632,113365
5317,551,7,130638,113363
5319,552,7,130640,113363
5322,548,7,130653,113364
5324,538,7,130653,113357
5327,520,7,130640,113367
5329,505,7,130652,113375
5332,498,7,130645,113375
5335,494,7,130647,113377
5337,493,7,130649,113374
5340,488,7,130678,113374
5342,488,7,130654,113379
5345,492,7,130658,113389
5347,495,7,130665,113379
5350,494,7,130664,113383
5352,494,7,130679,113389
5355,493,7,130675,113391
5357,498,7,130679,113395
5359,498,7,130694,113393
5362,498,7,130689,113395
5364,498,7,130700,113392
5367,503,7,130702,113397
5369,506,7,130690,113400
5372,506,7,130693,113396
5374,509,7,130685,113401
5377,506,7,130705,113401
5380,504,7,130707,113401
5382,503,7,130700,113412
5385,500,7,130707,113409
5387,499,7,130715,113410
5390,499,7,130706,113411
5392,503,7,130706,113403
5395,504,7,130698,113406
5397,508,7,130688,113408
5399,507,7,130699,113404
5402,507,7,130703,113400
5404,510,7,130692,113401
5407,509,7,130702,113397
5409,511,7,130692,113389
5412,511,7,130672,113389
5414,515,7,130669,113392
5416,518,7,130671,113382
5420,511,7,130671,113385
5422,506,7,130675,113385
5425,504,7,130662,113374
5427,509,7,130646,113374
5430,510,7,130660,113375
5432,508,7,130648,113367
5435,504,7,130649,113367
5437,505,7,130644,113363
5439,503,7,130643,113367
5442,501,7,130643,113363
5444,502,7,130643,113361
5447,505,7,130648,113359
5449,510,7,130636,113365
5452,512,7,130645,113370
5454,512,7,130642,113372
5456,507,7,130658,113370
5459,506,7,130659,113369
5462,505,7,130654,113371
5465,507,7,130661,113374
5467,504,7,130653,113375
5470,501,7,130657,113385
5472,504,7,130662,113376
5475,509,7,130683,113383
5477,511,7,130678,113386
5479,512,7,130678,113387
5482,510,7,130675,113388
5484,507,7,130678,113386
5487,511,7,130674,113393
5489,512,7,130682,113402
5492,515,7,130684,113404
5494,514,7,130691,113400
5496,519,7,130704,113405
5499,514,7,130694,113392
5501,513,7,130708,113411
5505,515,7,130699,113404
5507,513,7,130697,113400
5510,512,7,130701,113406
5512,512,7,130692,113396
5515,517,7,130696,113404
5517,520,7,130689,113403
5519,521,7,130686,113404
5522,520,7,130695,113403
5524,516,7,130694,113400
5527,520,7,130687,113402
5529,521,7,130695,113402
5532,523,7,130689,113396
5534,521,7,130683,113399
5536,523,7,130678,113396
5539,525,7,130688,113395
5541,519,7,130673,113388
5544,514,7,130669,113376
5547,514,7,130662,113376
5550,515,7,130660,113372
5552,517,7,130650,113374
5555,516,7,130642,113374
5557,514,7,130640,113361
5559,516,7,130640,113361
5562,519,7,130617,113353
5564,516,7,130607,113349
5567,514,7,130591,113349
5569,512,7,130597,113359
5572,514,7,130597,113352
5574,519,7,130585,113350
5576,514,7,130580,113351
5579,509,7,130591,113349
5581,506,7,130586,113354
5584,505,7,130589,113359
5586,510,7,130578,113365
5590,508,7,130586,113366
5592,513,7,130587,113368
5595,514,7,130593,113373
5597,514,7,130589,113373
5599,509,7,130590,113373
5602,500,7,130588,113379
5604,499,7,130586,113372
5607,501,7,130593,113371
5609,500,7,130582,113372
5612,503,7,130585,113367
5614,508,7,130579,113363
5616,506,7,130573,113363
5619,505,7,130571,113367
5621,503,7,130571,113358
5624,502,7,130574,113359
5626,500,7,130569,113359
5629,497,7,130570,113362
5632,501,7,130573,113352
5635,504,7,130565,113352
5637,512,7,130573,113356
5639,508,7,130573,113355
5642,503,7,130570,113355
5644,501,7,130572,113355
5647,502,7,130580,113361
5649,505,7,130580,113359
5652,509,7,130589,113362
5654,507,7,130588,113362
5656,509,7,130588,113371
5659,509,7,130592,113369
5661,508,7,130592,113374
5664,508,7,130600,113370
5666,505,7,130605,113370
5669,502,7,130614,113387
5671,505,7,130614,113390
5675,509,7,130616,113388
5677,512,7,130637,113388
5679,508,7,130642,113399
5682,504,7,130654,113409
5684,502,7,130659,113409
5687,505,7,130659,113410
5689,509,7,130653,113410
5692,513,7,130662,113411
5694,507,7,130662,113404
5696,508,7,130666,113411
5699,508,7,130654,113411
5701,505,7,130671,113401
5704,502,7,130671,113409
5706,501,7,130662,113408
5709,501,7,130645,113394
5711,502,7,130661,113394
5714,505,7,130643,113398
5716,511,7,130643,113393
5719,507,7,130648,113385
5722,504,7,130600,113385
5724,503,7,130633,113384
5727,511,7,130633,113380
5729,510,7,130631,113380
5732,511,7,130631,113369
5734,516,7,130633,113369
5736,521,7,130634,113383
5739,512,7,130634,113369
5741,511,7,130628,113369
5744,511,7,130627,113369
5746,508,7,130614,113371
5749,504,7,130614,113372
5751,505,7,130632,113380
5754,507,7,130628,113380
5756,511,7,130628,113374
5758,510,7,130645,113378
5762,507,7,130645,113389
5764,505,7,130646,113392
5767,505,7,130651,113395
5769,508,7,130662,113396
5772,514,7,130664,113401
5774,517,7,130678,113410
5776,516,7,130672,113410
5779,514,7,130686,113407
5781,511,7,130686,113405
5784,507,7,130691,113406
5786,511,7,130698,113405
5789,511,7,130680,113405
5791,509,7,130680,113415
5794,507,7,130696,113415
5796,506,7,130723,113425
5798,503,7,130723,113416
5801,502,7,130709,113413
5804,507,7,130695,113413
5807,509,7,130694,113419
5809,508,7,130684,113417
5812,505,7,130710,113409
5814,504,7,130701,113412
5816,511,7,130682,113412
5819,511,7,130683,113412
5821,510,7,130683,113411
5824,505,7,130681,113408
5826,508,7,130673,113398
5829,508,7,130678,113403
5831,505,7,130661,113399
5834,504,7,130679,113393
5836,509,7,130676,113396
5838,512,7,130666,113396
5841,508,7,130662,113405
5843,506,7,130679,113402
5847,503,7,130672,113401
5849,510,7,130674,113402
5852,510,7,130672,113403
5854,508,7,130677,113402
5856,508,7,130677,113399
5859,507,7,130672,113391
5861,506,7,130667,113397
5864,508,7,130659,113394
5866,507,7,130661,113384
5869,505,7,130648,113385
5871,505,7,130655,113374
5874,508,7,130659,113382
5876,508,7,130653,113378
5878,512,7,130637,113386
5881,514,7,130646,113388
5883,512,7,130644,113385
5886,508,7,130650,113379
5889,508,7,130662,113384
5892,510,7,130648,113381
5894,509,7,130656,113381
5896,512,7,130649,113379
5899,511,7,130649,113386
5901,510,7,130654,113387
5904,512,7,130660,113383
5906,510,7,130652,113388
5909,506,7,130654,113384
5911,507,7,130650,113394
5914,506,7,130652,113387
5916,510,7,130659,113394
5918,509,7,130662,113393
5921,510,7,130668,113397
5923,510,7,130655,113407
5926,513,7,130672,113402
5928,511,7,130678,113404
5932,510,7,130672,113402
5934,509,7,130684,113401
5936,513,7,130677,113405
5939,517,7,130686,113400
5941,514,7,130682,113410
5944,511,7,130680,113408
5946,509,7,130694,113408
5949,512,7,130687,113406
5951,517,7,130685,113410
5954,514,7,130682,113403
5956,511,7,130677,113401
5958,508,7,130675,113402
5961,511,7,130674,113395
5963,511,7,130666,113404
5966,516,7,130662,113395
5968,516,7,130672,113402
5971,512,7,130667,113393
5974,514,7,130662,113395
5976,513,7,130661,113386
5979,514,7,130658,113400
5981,510,7,130662,113393
5984,509,7,130662,113390
5986,510,7,130669,113393
5989,510,7,130669,113389
5991,508,7,130664,113389
5994,507,7,130657,113380
5996,504,7,130652,113388
5998,507,7,130654,113381
6001,509,7,130649,113381
6003,506,7,130659,113381
6006,508,7,130647,113380
6008,505,7,130640,113373
6011,510,7,130641,113365
6013,513,7,130647,113376
6016,507,7,130645,113384
6019,503,7,130651,113375
6021,499,7,130654,113384
6024,497,7,130665,113394
6026,501,7,130673,113390
6029,504,7,130672,113400
6031,508,7,130677,113403
6034,509,7,130686,113405
6036,510,7,130689,113410
6038,509,7,130690,113408
6041,507,7,130698,113408
6043,499,7,130699,113410
6046,496,7,130686,113406
6048,499,7,130695,113408
6051,503,7,130690,113405
6053,505,7,130679,113409
6055,504,7,130687,113409
6059,506,7,130686,113396
6061,505,7,130680,113390
6064,506,7,130677,113399
6066,507,7,130673,113382
6069,506,7,130672,113389
6071,501,7,130676,113389
6074,501,7,130678,113389
6076,502,7,130680,113397
6078,506,7,130680,113389
6081,512,7,130675,113396
6083,512,7,130682,113396
6086,514,7,130699,113405
6088,520,7,130699,113406
6091,528,7,130687,113400
6093,537,7,130690,113404
6095,539,7,130696,113404
6098,547,7,130701,113396
6100,550,7,130701,113404
6104,552,7,130703,113408
6106,555,7,130703,113408
6109,552,7,130693,113407
6111,545,7,130693,113399
6114,539,7,130699,113410
6116,523,7,130691,113401
6118,509,7,130696,113401
6121,489,7,130702,113405
6123,486,7,130702,113401
6126,488,7,130681,113401
6128,486,7,130690,113405
6131,487,7,130694,113400
6133,491,7,130687,113403
6135,490,7,130693,113403
6138,499,7,130686,113408
6140,499,7,130686,113396
6144,500,7,130691,113402
6146,499,7,130693,113402
6149,498,7,130703,113413
6151,497,7,130703,113412
6154,502,7,130711,113407
6156,506,7,130706,113407
6158,504,7,130705,113409
6161,499,7,130704,113408
6163,498,7,130703,113408
6166,500,7,130697,113407
6168,503,7,130697,113414
6171,507,7,130707,113404
6173,506,7,130696,113404
6175,505,7,130698,113402
6178,506,7,130698,113400
6180,500,7,130698,113408
6183,497,7,130707,113402
6185,502,7,130707,113404
6189,506,7,130667,113397
6191,503,7,130690,113397
6194,505,7,130690,113401
6196,502,7,130690,113389
6198,505,7,130688,113392
6201,505,7,130690,113392
6203,502,7,130689,113394
6206,503,7,130689,113398
6208,501,7,130687,113391
6211,502,7,130684,113391
6213,507,7,130697,113396
6215,513,7,130685,113395
6218,507,7,130685,113391
6220,508,7,130690,113400
6223,508,7,130693,113400
6225,505,7,130697,113404
6228,505,7,130697,113409
6231,506,7,130698,113407
6234,509,7,130710,113412
6236,511,7,130699,113412
6238,511,7,130707,113408
6241,504,7,130707,113408
6243,501,7,130701,113400
6246,501,7,130691,113402
6248,504,7,130693,113399
6251,511,7,130698,113397
6253,514,7,130696,113395
6255,514,7,130693,113395
6258,513,7,130687,113393
6260,508,7,130687,113388
6263,505,7,130679,113384
6265,512,7,130691,113387
6268,514,7,130667,113387
6270,512,7,130667,113378
6274,510,7,130681,113378
6276,508,7,130692,113384
6278,505,7,130692,113389
6281,503,7,130668,113386
6283,510,7,130668,113386
6286,513,7,130668,113387
6288,513,7,130671,113381
6291,512,7,130671,113386
6293,514,7,130674,113384
6295,515,7,130661,113384
6298,513,7,130666,113387
6300,511,7,130666,113385
6303,506,7,130674,113395
6305,509,7,130677,113392
6308,510,7,130683,113396
6310,507,7,130677,113385
6313,506,7,130703,113392
6316,511,7,130694,113396
6318,518,7,130682,113388
6321,517,7,130681,113388
6323,513,7,130694,113395
6326,510,7,130699,113392
6328,514,7,130675,113391
6331,512,7,130682,113394
6333,512,7,130685,113393
6335,514,7,130682,113393
6338,514,7,130683,113393
6340,514,7,130681,113390
6343,514,7,130662,113391
6345,513,7,130663,113386
6348,511,7,130659,113384
6350,513,7,130645,113373
6353,514,7,130642,113369
6355,512,7,130630,113369
6358,514,7,130606,113359
6361,516,7,130602,113366
6363,512,7,130594,113358
6366,507,7,130595,113352
6368,508,7,130584,113348
6371,509,7,130568,113349
6373,507,7,130560,113338
6375,509,7,130560,113341
6378,506,7,130551,113343
6380,504,7,130544,113335
6383,505,7,130547,113338
6385,501,7,130534,113332
6388,498,7,130537,113333
6390,498,7,130537,113327
6393,501,7,130520,113328
6395,501,7,130529,113324
6397,501,7,130530,113330
6401,500,7,130537,113326
6403,502,7,130524,113319
6406,507,7,130533,113325
6408,505,7,130538,113334
6411,502,7,130534,113333
6413,503,7,130544,113340
6415,507,7,130534,113337
6418,508,7,130551,113341
6420,505,7,130555,113342
6423,501,7,130559,113350
6425,500,7,130568,113357
6428,503,7,130573,113348
6430,511,7,130585,113362
6433,508,7,130573,113361
6435,508,7,130583,113364
6437,504,7,130582,113363
6440,502,7,130594,113367
6443,502,7,130594,113373
6446,505,7,130594,113363
6448,506,7,130607,113370
6451,503,7,130594,113367
6453,506,7,130595,113370
6455,504,7,130597,113367
6458,506,7,130601,113368
6460,503,7,130597,113370
6463,506,7,130596,113373
6465,507,7,130603,113369
6468,509,7,130607,113367
6470,511,7,130599,113373
6473,509,7,130600,113376
6475,504,7,130601,113369
6477,506,7,130614,113369
6480,509,7,130610,113375
6482,505,7,130612,113375
6486,507,7,130616,113376
6488,506,7,130624,113388
6491,508,7,130630,113383
6493,509,7,130633,113389
6495,507,7,130634,113398
6498,508,7,130642,113392
6500,504,7,130650,113394
6503,503,7,130653,113405
6505,509,7,130649,113405
6508,508,7,130662,113410
6510,509,7,130675,113417
6513,511,7,130681,113421
6515,513,7,130681,113426
6517,513,7,130689,113430
6520,511,7,130687,113424
6522,503,7,130693,113429
6525,499,7,130687,113429
6528,502,7,130696,113428
6531,504,7,130701,113432
6533,506,7,130696,113440
6535,505,7,130692,113440
6538,504,7,130699,113435
6540,505,7,130702,113422
6543,510,7,130700,113434
6545,510,7,130693,113429
6548,509,7,130703,113431
6550,505,7,130693,113422
6553,504,7,130688,113422
6555,505,7,130696,113418
6557,506,7,130696,113417
6560,510,7,130674,113414
6562,506,7,130682,113414
6565,506,7,130678,113407
6567,505,7,130678,113405
6571,510,7,130673,113408
6573,514,7,130674,113400
6575,510,7,130665,113400
6578,507,7,130668,113398
6580,505,7,130668,113396
6583,505,7,130658,113392
6585,508,7,130659,113394
6588,508,7,130657,113393
6590,511,7,130651,113388
6593,512,7,130651,113386
6595,510,7,130643,113387
6597,506,7,130637,113387
6600,503,7,130644,113379
6602,503,7,130644,113380
6605,506,7,130645,113396
6607,506,7,130644,113384
6610,510,7,130643,113386
6612,514,7,130640,113385
6615,510,7,130646,113385
6618,508,7,130645,113377
6620,506,7,130645,113377
6623,505,7,130630,113371
6625,503,7,130633,113371
6628,502,7,130627,113375
6630,504,7,130627,113366
6633,509,7,130617,113360
6635,513,7,130614,113360
6637,514,7,130614,113362
6640,510,7,130610,113355
6642,507,7,130597,113355
6645,506,7,130597,113345
6647,510,7,130581,113345
6650,514,7,130584,113341
6652,508,7,130584,113340
6654,508,7,130577,113344
6658,509,7,130572,113344
6660,506,7,130583,113332
6663,503,7,130583,113335
6665,501,7,130569,113334
6668,502,7,130574,113331
6670,505,7,130568,113337
6673,507,7,130568,113337
6675,508,7,130576,113343
6677,513,7,130576,113340
6680,514,7,130578,113340
6682,510,7,130581,113349
6685,505,7,130581,113352
6687,503,7,130587,113356
6690,506,7,130604,113357
6692,510,7,130604,113357
6694,513,7,130615,113360
6697,510,7,130615,113365
6700,511,7,130620,113378
6703,511,7,130626,113378
6705,507,7,130610,113370
6708,504,7,130610,113382
6710,506,7,130639,113391
6713,507,7,130642,113389
6715,510,7,130646,113389
6717,513,7,130655,113393
6720,510,7,130655,113390
6722,506,7,130657,113395
6725,506,7,130651,113393
6727,513,7,130654,113402
6730,515,7,130659,113402
6732,515,7,130662,113402
6734,513,7,130662,113403
6737,513,7,130662,113403
6739,513,7,130662,113401
6743,511,7,130664,113404
6745,512,7,130662,113400
6748,511,7,130673,113400
6750,512,7,130673,113396
6753,509,7,130669,113396
6755,508,7,130694,113404
6757,505,7,130694,113405
6760,504,7,130675,113405
6762,510,7,130679,113409
6765,513,7,130688,113413
6767,512,7,130710,113421
6770,509,7,130710,113420
6772,510,7,130698,113422
6774,514,7,130700,113422
6777,514,7,130708,113425
6779,510,7,130708,113426
6782,505,7,130711,113425
6785,507,7,130718,113433
6788,508,7,130719,113428
6790,506,7,130726,113429
6793,507,7,130726,113433
6795,506,7,130725,113443
6797,510,7,130720,113442
6800,510,7,130733,113435
6802,504,7,130745,113435
6805,508,7,130729,113439
6807,510,7,130732,113433
6810,507,7,130732,113437
6812,505,7,130719,113441
6814,503,7,130729,113431
6817,503,7,130715,113436
6819,506,7,130729,113430
6822,508,7,130721,113432
6824,507,7,130716,113424
6828,503,7,130720,113429
6830,503,7,130722,113425
6833,503,7,130709,113428
6835,504,7,130708,113429
6837,506,7,130719,113423
6840,505,7,130718,113427
6842,508,7,130722,113425
6845,511,7,130710,113428
6847,509,7,130717,113422
6850,508,7,130731,113432
6852,513,7,130725,113428
6854,514,7,130731,113427
6857,514,7,130730,113432
6859,508,7,130739,113437
6862,507,7,130737,113436
6864,503,7,130735,113445
6867,502,7,130729,113442
6870,504,7,130742,113440
6873,508,7,130738,113451
6875,508,7,130741,113443
6877,509,7,130742,113448
6880,507,7,130749,113449
6882,511,7,130739,113452
6885,511,7,130750,113454
6887,507,7,130747,113453
6890,505,7,130753,113452
6892,504,7,130753,113446
6894,512,7,130741,113450
6897,517,7,130743,113438
6899,515,7,130750,113444
6902,519,7,130747,113441
6904,523,7,130757,113439
6907,531,7,130750,113450
6909,541,7,130763,113448
6913,543,7,130755,113450
6915,550,7,130745,113451
6917,551,7,130746,113445
6920,551,7,130758,113442
6922,548,7,130740,113439
6925,546,7,130739,113444
6927,540,7,130743,113436
6930,531,7,130730,113438
6932,510,7,130732,113434
6934,507,7,130730,113429
6937,505,7,130723,113428
6939,497,7,130715,113424
6942,491,7,130712,113427
6944,487,7,130712,113420
6947,492,7,130712,113414
6949,498,7,130716,113412
6952,497,7,130711,113424
6955,499,7,130709,113416
6957,496,7,130705,113405
6960,497,7,130700,113413
6962,497,7,130701,113414
6965,499,7,130710,113408
6967,498,7,130710,113418
6970,501,7,130714,113416
6972,502,7,130710,113424
6974,507,7,130726,113425
6977,509,7,130727,113423
6979,502,7,130727,113427
6982,499,7,130733,113427
6984,498,7,130739,113440
6987,503,7,130750,113447
6989,509,7,130752,113442
6992,508,7,130742,113453
6994,511,7,130761,113457
6996,511,7,130752,113444
7000,505,7,130763,113451
7002,499,7,130772,113459
7005,498,7,130766,113453
7007,502,7,130767,113451
7010,505,7,130767,113460
7012,506,7,130769,113454
7014,509,7,130759,113454
7017,508,7,130767,113460
7019,511,7,130766,113449
7022,511,7,130759,113443
7024,508,7,130752,113438
7027,506,7,130753,113439
7029,504,7,130746,113434
7032,505,7,130744,113434
7034,505,7,130736,113433
7036,506,7,130733,113428
7040,508,7,130726,113426
7042,507,7,130726,113424
7045,507,7,130724,113417
7047,506,7,130712,113416
7050,509,7,130723,113416
7052,508,7,130715,113418
7054,505,7,130717,113418
7057,510,7,130711,113419
7059,509,7,130715,113406
7062,509,7,130708,113415
7064,509,7,130708,113406
7067,510,7,130709,113404
7069,509,7,130699,113416
7072,511,7,130695,113416
7074,508,7,130703,113404
7076,509,7,130703,113411
7079,510,7,130704,113412
7081,507,7,130715,113412
7085,509,7,130712,113413
7087,510,7,130712,113414
7090,514,7,130710,113419
7092,515,7,130713,113419
7094,511,7,130717,113423
7097,511,7,130717,113419
7099,509,7,130719,113428
7102,508,7,130725,113420
7104,512,7,130726,113420
7107,512,7,130738,113421
7109,518,7,130738,113431
7112,521,7,130733,113428
7114,519,7,130736,113428
7116,514,7,130742,113434
7119,510,7,130742,113427
7121,509,7,130742,113430
7124,510,7,130739,113437
7127,511,7,130723,113430
7130,518,7,130736,113421
7132,521,7,130717,113421
7134,517,7,130723,113422
7137,515,7,130723,113415
7139,510,7,130713,113409
7142,508,7,130708,113408
7144,511,7,130693,113408
7147,512,7,130683,113406
7149,518,7,130683,113398
7152,515,7,130678,113384
7154,513,7,130661,113384
7156,514,7,130667,113393
7159,515,7,130667,113396
7161,521,7,130654,113383
7164,521,7,130643,113383
7166,516,7,130640,113388
7170,515,7,130640,113382
7172,511,7,130623,113383
7174,508,7,130581,113389
7177,510,7,130624,113389
7179,513,7,130624,113396
7182,511,7,130624,113395
7184,514,7,130617,113398
7187,513,7,130616,113398
7189,508,7,130628,113399
7192,508,7,130628,113390
7194,506,7,130624,113400
7196,506,7,130628,113400
7199,506,7,130630,113403
7201,505,7,130628,113405
7204,504,7,130628,113411
7206,499,7,130629,113415
7209,497,7,130621,113415
7212,499,7,130625,113405
7214,505,7,130625,113404
7217,504,7,130616,113404
7219,504,7,130614,113404
7222,505,7,130620,113406
7224,504,7,130619,113407
7227,506,7,130619,113401
7229,503,7,130609,113406
7232,506,7,130624,113406
7234,507,7,130614,113398
7236,504,7,130614,113390
7239,503,7,130609,113394
7241,501,7,130604,113394
7244,500,7,130630,113397
7246,497,7,130630,113400
7249,495,7,130607,113393
7251,504,7,130608,113385
7254,506,7,130614,113385
7257,507,7,130609,113389
7259,506,7,130605,113378
7262,503,7,130623,113378
7264,504,7,130595,113378
7267,506,7,130616,113380
7269,504,7,130603,113386
7272,502,7,130603,113388
7274,508,7,130608,113380
7276,507,7,130614,113387
7279,504,7,130603,113383
7281,502,7,130624,113383
7284,501,7,130617,113387
7286,509,7,130619,113392
7289,509,7,130617,113386
7291,507,7,130623,113386
7293,505,7,130629,113392
7297,509,7,130637,113395
7299,513,7,130635,113396
7302,513,7,130622,113397
7304,511,7,130633,113399
7307,506,7,130639,113399
7309,507,7,130642,113404
7312,511,7,130643,113397
7314,505,7,130639,113402
7316,506,7,130631,113397
7319,508,7,130647,113404
7321,511,7,130639,113400
7324,513,7,130648,113399
7326,504,7,130635,113396
7329,504,7,130627,113404
7331,509,7,130633,113385
7333,512,7,130629,113394
7336,508,7,130635,113389
7339,504,7,130637,113390
7342,504,7,130627,113388
7344,502,7,130626,113390
7347,506,7,130640,113384
7349,505,7,130637,113384
7352,508,7,130628,113378
7354,507,7,130638,113377
7356,508,7,130638,113382
7359,507,7,130637,113385
7361,512,7,130621,113381
7364,515,7,130628,113390
7366,514,7,130625,113385
7369,509,7,130619,113382
7371,513,7,130632,113377
7373,515,7,130627,113385
7376,515,7,130631,113377
7378,508,7,130628,113383
7382,505,7,130648,113382
7384,504,7,130643,113386
7387,506,7,130646,113388
7389,505,7,130640,113387
7392,510,7,130641,113394
7394,510,7,130644,113390
7396,512,7,130660,113397
7399,512,7,130651,113394
7401,507,7,130645,113394
7404,508,7,130649,113398
7406,506,7,130652,113396
7409,511,7,130658,113397
7411,514,7,130657,113400
7413,511,7,130668,113400
7416,511,7,130657,113400
7418,506,7,130658,113401
7421,506,7,130665,113406
7424,508,7,130663,113405
7427,509,7,130667,113401
7429,511,7,130663,113405
7432,513,7,130662,113398
7434,510,7,130666,113404
7436,512,7,130662,113392
7439,509,7,130659,113398
7441,513,7,130669,113404
7444,514,7,130659,113400
7446,509,7,130665,113399
7449,509,7,130652,113404
7451,507,7,130656,113402
7453,512,7,130662,113397
7456,514,7,130664,113402
7458,507,7,130656,113397
7461,506,7,130656,113397
7463,503,7,130657,113401
7467,506,7,130655,113403
7469,511,7,130649,113400
7472,510,7,130654,113402
7474,513,7,130662,113400
7476,513,7,130651,113403
7479,507,7,130654,113393
7481,501,7,130659,113402
7484,504,7,130652,113399
7486,505,7,130655,113394
7489,507,7,130651,113393
7491,509,7,130650,113390
7493,514,7,130645,113391
7496,516,7,130648,113391
7498,508,7,130647,113390
7501,510,7,130649,113391
7503,511,7,130650,113394
7506,506,7,130647,113396
7508,506,7,130652,113385
7512,509,7,130652,113391
7514,512,7,130641,113400
7516,505,7,130643,113393
7519,502,7,130649,113387
7521,502,7,130644,113387
7524,507,7,130640,113388
7526,508,7,130641,113390
7529,510,7,130641,113375
7531,509,7,130634,113375
7533,511,7,130638,113375
7536,510,7,130638,113381
7538,512,7,130641,113383
7541,512,7,130640,113384
7543,509,7,130640,113381
7546,508,7,130647,113377
7548,506,7,130646,113377
7552,508,7,130637,113377
7554,508,7,130649,113379
7556,509,7,130649,113378
7559,510,7,130647,113394
7561,508,7,130650,113394
7564,511,7,130647,113389
7566,511,7,130647,113390
7569,516,7,130654,113393
7571,518,7,130664,113393
7573,515,7,130664,113390
7576,513,7,130664,113398
7578,510,7,130663,113400
7581,508,7,130673,113406
7583,511,7,130677,113406
7586,511,7,130684,113397
7588,518,7,130684,113402
7591,521,7,130678,113400
7593,518,7,130679,113400
7596,515,7,130675,113400
7599,509,7,130675,113393
7601,513,7,130675,113386
7604,513,7,130668,113392
7606,508,7,130668,113396
7609,514,7,130662,113392
7611,517,7,130662,113392
7613,513,7,130655,113386
7616,509,7,130655,113372
7618,504,7,130641,113371
7621,503,7,130646,113371
7623,504,7,130642,113371
7626,504,7,130636,113370
7628,506,7,130636,113358
7631,503,7,130634,113365
7633,502,7,130631,113365
7635,505,7,130640,113366
7639,503,7,130640,113369
7641,505,7,130641,113370
7644,507,7,130644,113370
7646,505,7,130646,113374
7649,507,7,130646,113365
7651,505,7,130649,113372
7653,503,7,130613,113375
7656,503,7,130656,113375
7658,507,7,130658,113376
7661,506,7,130658,113370
7663,511,7,130654,113372
7666,511,7,130624,113372
7668,506,7,130669,113381
7671,504,7,130669,113377
7673,510,7,130656,113374
7675,509,7,130665,113393
7678,505,7,130672,113399
7681,510,7,130672,113391
7684,512,7,130670,113391
7686,512,7,130677,113391
7689,506,7,130677,113396
7691,510,7,130682,113398
7693,510,7,130679,113398
7696,508,7,130689,113400
7698,505,7,130689,113393
7701,504,7,130680,113404
7703,504,7,130691,113404
7706,503,7,130688,113397
7708,500,7,130688,113406
7711,504,7,130679,113397
7713,516,7,130685,113399
7715,520,7,130676,113399
7718,522,7,130680,113398
7720,523,7,130680,113403
7724,527,7,130683,113401
7726,535,7,130676,113406
7729,541,7,130682,113403
7731,547,7,130685,113403
7733,556,7,130689,113403
7736,554,7,130705,113402
7738,545,7,130705,113397
7741,536,7,130691,113402
7743,524,7,130694,113402
7746,517,7,130699,113402
7748,508,7,130699,113404
7751,501,7,130697,113407
7753,497,7,130702,113410
7755,493,7,130697,113410
7758,491,7,130703,113420
7760,489,7,130707,113411
7763,489,7,130717,113416
7766,494,7,130703,113415
7769,493,7,130717,113416
7771,492,7,130704,113416
7773,494,7,130720,113419
7776,499,7,130725,113424
7778,501,7,130721,113423
7781,499,7,130721,113427
7783,496,7,130725,113417
7786,496,7,130723,113422
7788,501,7,130727,113419
7791,502,7,130729,113417
7793,499,7,130722,113420
7795,497,7,130712,113431
7798,496,7,130725,113425
7800,500,7,130728,113424
7803,510,7,130728,113420
7805,514,7,130734,113434
7809,513,7,130727,113429
7811,507,7,130731,113430
7813,504,7,130735,113429
7816,507,7,130729,113425
7818,508,7,130739,113434
7821,507,7,130730,113425
7823,503,7,130739,113427
7826,502,7,130738,113427
7828,501,7,130733,113433
7831,506,7,130730,113429
7833,506,7,130735,113424
7835,506,7,130733,113423
7838,504,7,130732,113418
7840,507,7,130725,113424
7843,511,7,130726,113417
7845,510,7,130720,113420
7848,509,7,130735,113422
7851,509,7,130732,113425
7853,514,7,130717,113428
7856,514,7,130725,113419
7858,511,7,130730,113422
7861,508,7,130736,113431
7863,512,7,130717,113425
7866,514,7,130714,113418
7868,513,7,130714,113417
7871,507,7,130710,113422
7873,505,7,130729,113409
7875,508,7,130708,113406
7878,510,7,130704,113410
7880,507,7,130698,113405
7883,506,7,130694,113397
7885,507,7,130680,113386
7888,514,7,130687,113382
7890,518,7,130676,113386
7892,516,7,130674,113377
7896,512,7,130668,113365
7898,507,7,130664,113377
7901,509,7,130660,113372
7903,512,7,130650,113369
7906,514,7,130650,113364
7908,512,7,130649,113366
7911,512,7,130640,113359
7913,510,7,130636,113359
7915,513,7,130635,113356
7918,516,7,130637,113367
7920,513,7,130632,113361
7923,512,7,130642,113372
7925,513,7,130648,113369
7928,521,7,130664,113369
7930,525,7,130649,113368
7932,521,7,130662,113383
7936,520,7,130668,113384
7938,513,7,130670,113379
7941,512,7,130671,113386
7943,513,7,130685,113388
7946,515,7,130683,113390
7948,517,7,130682,113382
7951,517,7,130675,113382
7953,513,7,130688,113392
7955,515,7,130681,113387
7958,517,7,130682,113386
7960,513,7,130673,113389
7963,514,7,130673,113389
7965,512,7,130672,113388
7968,514,7,130672,113382
7970,515,7,130659,113382
7972,514,7,130657,113381
7975,515,7,130650,113377
7977,511,7,130656,113375
7981,510,7,130646,113376
7983,514,7,130630,113368
7986,513,7,130628,113374
7988,515,7,130620,113365
7991,517,7,130611,113364
7993,521,7,130612,113363
7995,516,7,130589,113359
7998,510,7,130589,113351
8000,501,7,130575,113347
8003,498,7,130582,113352
8005,500,7,130572,113347
8008,505,7,130572,113349
8010,510,7,130558,113337
8012,506,7,130551,113337
8015,502,7,130555,113342
8017,500,7,130550,113342
8020,499,7,130543,113346
8023,498,7,130548,113335
8026,497,7,130541,113335
8028,495,7,130540,113340
8031,496,7,130540,113340
8033,498,7,130546,113338
8035,501,7,130546,113333
8038,502,7,130550,113346
8040,499,7,130555,113346
8043,498,7,130564,113348
8045,498,7,130564,113352
8048,502,7,130565,113351
8050,504,7,130570,113351
8052,503,7,130570,113358
8055,500,7,130573,113358
8057,499,7,130573,113354
8060,500,7,130565,113356
8062,503,7,130582,113356
8066,503,7,130581,113357
8068,509,7,130581,113357
8071,512,7,130569,113353
8073,510,7,130574,113348
8075,508,7,130584,113348
8078,499,7,130573,113353
8080,497,7,130573,113346
8083,499,7,130570,113345
8085,498,7,130570,113350
8088,504,7,130577,113347
8090,507,7,130565,113347
8092,505,7,130578,113353
8095,504,7,130575,113345
8097,502,7,130575,113346
8100,501,7,130577,113350
8102,498,7,130571,113350
8105,497,7,130580,113359
8108,503,7,130580,113356
8111,508,7,130590,113355
8113,511,7,130592,113355
8115,510,7,130596,113360
8118,503,7,130605,113357
8120,499,7,130599,113357
8123,501,7,130599,113354
8125,505,7,130601,113354
8128,510,7,130612,113368
8130,505,7,130612,113360
8132,507,7,130600,113360
8135,508,7,130605,113360
8137,503,7,130604,113359
8140,497,7,130604,113355
8142,495,7,130599,113361
8145,496,7,130599,113361
8147,499,7,130596,113351
8151,506,7,130596,113345
8153,510,7,130598,113350
8155,510,7,130589,113345
8158,505,7,130558,113345
8160,501,7,130587,113349
8163,506,7,130587,113335
8165,505,7,130572,113335
8168,507,7,130572,113334
8170,511,7,130574,113334
8172,516,7,130566,113334
8175,507,7,130566,113324
8177,505,7,130571,113324
8180,505,7,130559,113319
8182,505,7,130559,113322
8185,503,7,130559,113315
8187,501,7,130557,113311
8190,503,7,130547,113311
8193,507,7,130550,113308
8195,507,7,130550,113307
8198,506,7,130541,113307
8200,507,7,130546,113304
8203,507,7,130543,113304
8205,505,7,130543,113306
8208,504,7,130558,113306
8210,505,7,130556,113308
8212,507,7,130556,113314
8215,509,7,130559,113314
8217,508,7,130555,113320
8220,507,7,130560,113315
8222,508,7,130575,113327
8225,509,7,130575,113327
8227,500,7,130577,113330
8230,503,7,130588,113334
8232,505,7,130568,113334
8235,503,7,130597,113333
8238,500,7,130593,113333
8240,502,7,130587,113344
8243,504,7,130589,113339
8245,504,7,130604,113346
8248,503,7,130599,113352
8250,499,7,130609,113352
8252,502,7,130623,113355
8255,505,7,130610,113351
8257,502,7,130621,113355
8260,498,7,130615,113348
8262,501,7,130618,113355
8265,508,7,130604,113354
8267,514,7,130607,113351
8270,514,7,130605,113352
8272,509,7,130611,113347
8274,509,7,130616,113352
8278,506,7,130591,113346
8280,506,7,130600,113339
8283,506,7,130604,113340
8285,502,7,130599,113337
8288,507,7,130595,113349
8290,511,7,130590,113329
8292,510,7,130589,113328
8295,506,7,130590,113335
8297,500,7,130582,113328
8300,496,7,130575,113322
8302,495,7,130572,113321
8305,498,7,130573,113323
8307,504,7,130572,113313
8310,507,7,130572,113320
8312,518,7,130570,113318
8314,519,7,130560,113321
8317,514,7,130550,113314
8320,512,7,130556,113316
8323,508,7,130565,113316
8325,510,7,130580,113321
8328,512,7,130569,113319
8330,512,7,130580,113319
8332,508,7,130585,113323
8335,506,7,130578,113329
8337,505,7,130581,113328
8340,506,7,130582,113332
8342,504,7,130590,113340
8345,505,7,130600,113330
8347,506,7,130607,113344
8350,513,7,130594,113349
8352,516,7,130606,113345
8354,512,7,130624,113355
8357,511,7,130616,113354
8359,505,7,130632,113365
8363,506,7,130647,113373
8365,507,7,130636,113380
8368,510,7,130653,113377
8370,509,7,130645,113375
8372,512,7,130656,113382
8375,512,7,130659,113387
8377,514,7,130667,113388
8380,516,7,130660,113386
8382,511,7,130676,113389
8385,509,7,130663,113394
8387,506,7,130660,113393
8390,510,7,130670,113389
8392,514,7,130665,113386
8394,512,7,130663,113388
8397,512,7,130660,113394
8399,506,7,130659,113378
8402,507,7,130655,113382
8404,508,7,130657,113383
8408,509,7,130654,113378
8410,507,7,130646,113377
8412,510,7,130648,113374
8415,506,7,130645,113380
8417,508,7,130649,113371
8420,507,7,130646,113376
8422,500,7,130640,113374
8425,500,7,130639,113369
8427,499,7,130645,113375
8430,505,7,130638,113370
8432,507,7,130641,113370
8434,502,7,130638,113365
8437,497,7,130640,113376
8439,493,7,130650,113364
8442,492,7,130648,113371
8444,498,7,130650,113370
8448,499,7,130643,113379
8450,507,7,130649,113377
8452,509,7,130652,113377
8455,510,7,130664,113380
8457,502,7,130654,113381
8460,503,7,130665,113385
8462,504,7,130663,113384
8465,499,7,130671,113387
8467,500,7,130671,113395
8470,502,7,130675,113393
8472,502,7,130686,113394
8474,498,7,130690,113393
8477,495,7,130686,113395
8479,498,7,130681,113396
8482,497,7,130685,113397
8484,499,7,130684,113398
8487,505,7,130683,113394
8489,508,7,130675,113394
8492,504,7,130680,113394
8495,499,7,130687,113390
8497,497,7,130685,113394
8500,499,7,130676,113388
8502,500,7,130674,113383
8505,502,7,130671,113376
8507,505,7,130664,113377
8510,510,7,130657,113377
8512,516,7,130654,113369
8514,519,7,130654,113367
8517,526,7,130645,113366
8519,526,7,130649,113366
8522,534,7,130648,113366
8524,543,7,130648,113357
8527,553,7,130648,113365
8529,555,7,130643,113362
8531,550,7,130641,113362
8535,541,7,130639,113371
8537,530,7,130639,113368
8540,512,7,130646,113369
8542,504,7,130656,113369
8545,496,7,130657,113373
8547,495,7,130657,113365
8550,497,7,130661,113377
8552,495,7,130675,113380
8554,490,7,130672,113380
8557,488,7,130674,113386
8559,490,7,130674,113392
8562,492,7,130678,113398
8564,491,7,130699,113410
8567,497,7,130709,113405
8569,499,7,130699,113405
8571,496,7,130709,113400
8574,495,7,130709,113403
8577,493,7,130709,113410
8580,493,7,130710,113412
8582,492,7,130702,113412
8585,496,7,130713,113419
8587,498,7,130713,113414
8590,504,7,130712,113408
8592,503,7,130713,113405
8594,500,7,130713,113406
8597,496,7,130710,113408
8599,493,7,130709,113408
8602,497,7,130714,113417
8604,499,7,130714,113406
8607,505,7,130705,113400
8609,506,7,130699,113400
8611,504,7,130701,113408
8614,504,7,130701,113397
8616,500,7,130702,113399
8620,498,7,130696,113399
8622,502,7,130709,113397
8625,505,7,130709,113394
8627,511,7,130697,113394
8630,509,7,130697,113393
8632,505,7,130697,113393
8634,502,7,130697,113389
8637,504,7,130700,113389
8639,508,7,130693,113392
8642,505,7,130693,113389
8644,505,7,130690,113389
8647,502,7,130656,113389
8649,501,7,130685,113382
8651,506,7,130685,113377
8654,507,7,130682,113382
8656,508,7,130689,113382
8659,509,7,130675,113382
8662,508,7,130687,113380
8665,508,7,130687,113388
8667,504,7,130672,113378
8670,503,7,130670,113378
8672,505,7,130666,113371
8674,510,7,130666,113368
8677,509,7,130661,113364
8679,508,7,130666,113363
8682,508,7,130655,113368
8684,509,7,130648,113366
8687,509,7,130658,113366
8689,510,7,130663,113362
8691,511,7,130663,113355
8694,512,7,130645,113359
8696,512,7,130653,113359
8699,509,7,130672,113364
8701,504,7,130672,113371
8705,501,7,130651,113361
8707,508,7,130655,113364
8710,511,7,130654,113364
8712,514,7,130652,113368
8714,515,7,130652,113366
8717,515,7,130651,113364
8719,513,7,130647,113364
8722,510,7,130667,113364
8724,506,7,130667,113365
8727,504,7,130666,113367
8729,512,7,130660,113366
8731,514,7,130657,113367
8734,512,7,130644,113366
8736,510,7,130670,113364
8739,514,7,130661,113361
8741,520,7,130649,113366
8744,519,7,130658,113366
8747,515,7,130656,113364
8750,515,7,130639,113357
8752,512,7,130649,113355
8754,513,7,130653,113358
8757,517,7,130631,113352
8759,521,7,130636,113343
8762,522,7,130633,113336
8764,513,7,130613,113342
8767,509,7,130617,113340
8769,507,7,130618,113333
8771,507,7,130601,113332
8774,516,7,130608,113326
8776,519,7,130594,113323
8779,519,7,130574,113328
8781,516,7,130581,113314
8784,510,7,130570,113317
8786,506,7,130557,113315
8790,509,7,130549,113319
8792,511,7,130549,113305
8794,508,7,130535,113309
8797,507,7,130544,113308
8799,505,7,130543,113310
8802,505,7,130531,113310
8804,503,7,130532,113305
8807,505,7,130539,113311
8809,503,7,130537,113315
8811,506,7,130532,113305
8814,508,7,130524,113307
8816,504,7,130535,113309
8819,502,7,130530,113312
8821,497,7,130536,113313
8824,500,7,130515,113323
8826,504,7,130531,113317
8829,500,7,130542,113311
8832,500,7,130528,113324
8834,498,7,130537,113322
8837,499,7,130543,113327
8839,498,7,130531,113333
8842,500,7,130535,113332
8844,499,7,130539,113330
8847,500,7,130546,113327
8849,502,7,130547,113325
8851,506,7,130543,113331
8854,509,7,130548,113325
8856,505,7,130552,113332
8859,504,7,130540,113333
8861,500,7,130540,113323
8864,504,7,130549,113316
8866,508,7,130539,113314
8869,504,7,130547,113316
8871,504,7,130530,113311
8873,500,7,130535,113317
8877,500,7,130535,113314
8879,500,7,130530,113307
8882,502,7,130531,113298
8884,501,7,130524,113305
8887,502,7,130527,113311
8889,504,7,130532,113304
8891,510,7,130532,113305
8894,513,7,130533,113307
8896,508,7,130527,113305
8899,508,7,130534,113304
8901,504,7,130534,113303
8904,507,7,130552,113316
8906,511,7,130552,113314
8909,506,7,130543,113313
8911,509,7,130546,113319
8913,510,7,130555,113329
8916,503,7,130560,113327
8919,504,7,130565,113326
8922,503,7,130568,113323
8924,498,7,130568,113333
8927,499,7,130567,113333
8929,499,7,130577,113336
8931,503,7,130576,113329
8934,507,7,130579,113337
8936,505,7,130575,113337
8939,505,7,130584,113337
8941,502,7,130586,113342
8944,504,7,130586,113332
8946,508,7,130578,113328
8949,507,7,130590,113334
8951,511,7,130591,113327
8953,513,7,130575,113326
8956,508,7,130590,113324
8958,504,7,130575,113329
8962,504,7,130576,113326
8964,505,7,130579,113317
8967,506,7,130579,113337
8969,506,7,130570,113325
8971,508,7,130576,113325
8974,510,7,130569,113327
8976,512,7,130576,113320
8979,511,7,130578,113328
8981,508,7,130575,113314
8984,507,7,130573,113314
8986,505,7,130562,113319
8989,506,7,130561,113319
8991,509,7,130567,113320
8993,512,7,130567,113311
8996,513,7,130561,113306
8998,509,7,130562,113306
9001,509,7,130580,113313
9004,507,7,130580,113325
9007,511,7,130582,113332
9009,513,7,130598,113339
9011,511,7,130606,113339
9014,510,7,130610,113347
9016,507,7,130610,113348
9019,504,7,130612,113344
9021,502,7,130610,113344
9024,501,7,130617,113347
9026,510,7,130617,113340
9029,515,7,130617,113343
9031,517,7,130608,113340
9033,513,7,130610,113340
9036,512,7,130611,113344
9038,513,7,130611,113343
9041,512,7,130599,113340
9043,508,7,130604,113340
9047,512,7,130602,113338
9049,513,7,130597,113329
9051,510,7,130593,113329
9054,508,7,130597,113322
9056,506,7,130597,113327
9059,506,7,130588,113325
9061,504,7,130584,113325
9064,508,7,130589,113328
9066,510,7,130589,113331
9069,514,7,130594,113335
9071,513,7,130598,113334
9073,511,7,130598,113332
9076,510,7,130603,113335
9078,507,7,130600,113335
9081,509,7,130606,113339
9083,507,7,130606,113336
9086,512,7,130604,113339
9089,513,7,130598,113339
9091,511,7,130596,113330
9094,511,7,130596,113330
9096,507,7,130602,113334
9099,506,7,130596,113334
9101,509,7,130610,113334
9104,511,7,130610,113336
9106,517,7,130596,113335
9109,516,7,130610,113345
9111,512,7,130614,113345
9113,509,7,130616,113339
9116,510,7,130616,113340
9118,516,7,130616,113347
9121,516,7,130616,113347
9123,511,7,130616,113347
9126,512,7,130624,113351
9128,513,7,130620,113351
9131,512,7,130629,113352
9134,514,7,130629,113349
9136,510,7,130621,113346
9139,510,7,130620,113346
9141,514,7,130625,113352
9144,516,7,130625,113354
9146,521,7,130627,113353
9149,520,7,130620,113353
9151,516,7,130636,113354
9153,514,7,130636,113353
9156,513,7,130619,113349
9158,515,7,130626,113343
9161,515,7,130625,113349
9163,515,7,130619,113346
9166,515,7,130616,113346
9168,515,7,130622,113343
9170,515,7,130622,113346
9174,516,7,130613,113343
9176,516,7,130612,113343
9179,514,7,130617,113336
9181,510,7,130617,113337
9184,512,7,130596,113330
9186,515,7,130605,113320
9189,515,7,130589,113320
9191,515,7,130585,113318
9193,514,7,130585,113320
9196,513,7,130577,113316
9198,510,7,130586,113316
9201,507,7,130605,113327
9203,502,7,130605,113330
9206,499,7,130590,113320
9208,502,7,130587,113320
9210,504,7,130597,113322
9213,504,7,130595,113316
9216,504,7,130593,113316
9219,505,7,130583,113319
9221,502,7,130599,113314
9224,500,7,130593,113314
9226,503,7,130577,113316
9229,502,7,130594,113311
9231,508,7,130572,113312
9233,508,7,130579,113308
9236,505,7,130579,113320
9238,502,7,130592,113315
9241,500,7,130590,113318
9243,507,7,130598,113323
9246,508,7,130588,113328
9248,506,7,130604,113322
9250,505,7,130595,113321
9253,509,7,130604,113327
9255,512,7,130611,113325
9259,510,7,130606,113336
9261,506,7,130612,113337
9264,502,7,130615,113331
9266,506,7,130618,113335
9269,510,7,130627,113338
9271,507,7,130628,113333
9273,508,7,130613,113340
9276,510,7,130622,113341
9278,512,7,130628,113341
9281,508,7,130633,113342
9283,503,7,130633,113346
9286,502,7,130626,113344
9288,501,7,130629,113342
9290,503,7,130621,113337
9293,505,7,130632,113341
9295,509,7,130620,113340
9298,513,7,130630,113339
9300,512,7,130615,113336
9304,517,7,130628,113340
9306,521,7,130623,113337
9309,529,7,130614,113344
9311,536,7,130616,113337
9313,539,7,130623,113339
9316,546,7,130622,113339
9318,549,7,130626,113341
9321,552,7,130626,113336
9323,551,7,130611,113340
9326,549,7,130623,113345
9328,543,7,130621,113341
9330,536,7,130620,113345
9333,513,7,130625,113346
9335,507,7,130626,113345
9338,503,7,130638,113350
9340,496,7,130628,113349
9344,492,7,130628,113356
9346,490,7,130637,113356
9349,496,7,130647,113346
9351,499,7,130649,113356
9353,497,7,130651,113360
9356,496,7,130653,113358
9358,494,7,130654,113368
9361,498,7,130657,113373
9363,500,7,130657,113372
9366,502,7,130665,113370
9368,501,7,130673,113378
9370,505,7,130679,113388
9373,504,7,130688,113385
9375,503,7,130685,113386
9378,504,7,130688,113380
9380,503,7,130688,113392
9383,501,7,130684,113386
9385,500,7,130693,113390
9389,507,7,130698,113389
9391,511,7,130692,113393
9393,509,7,130684,113388
9396,505,7,130690,113388
9398,499,7,130685,113385
9401,502,7,130674,113380
9403,502,7,130685,113369
9406,504,7,130664,113368
9408,507,7,130656,113372
9410,512,7,130656,113367
9413,514,7,130657,113361
9415,508,7,130646,113360
9418,503,7,130650,113356
9420,504,7,130644,113349
9423,506,7,130640,113349
9425,507,7,130625,113344
9428,508,7,130629,113344
9431,511,7,130636,113349
9433,513,7,130636,113341
9436,516,7,130624,113345
9438,512,7,130624,113340
9441,512,7,130626,113340
9443,508,7,130627,113342
9446,510,7,130627,113337
9448,512,7,130624,113339
9450,510,7,130629,113344
9453,508,7,130633,113341
9455,507,7,130635,113340
9458,507,7,130639,113343
9460,512,7,130633,113346
9463,511,7,130632,113353
9465,518,7,130641,113351
9468,520,7,130641,113358
9470,520,7,130650,113355
9473,515,7,130649,113355
9476,509,7,130649,113364
9478,509,7,130649,113355
9481,509,7,130650,113350
9483,508,7,130651,113357
9486,510,7,130660,113355
9488,514,7,130645,113356
9490,512,7,130644,113356
9493,513,7,130637,113347
9495,511,7,130637,113342
9498,512,7,130634,113340
9500,510,7,130628,113340
9503,510,7,130629,113342
9505,512,7,130625,113333
9508,515,7,130619,113333
9510,522,7,130612,113326
9512,517,7,130612,113340
9516,514,7,130622,113327
9518,515,7,130619,113327
9521,516,7,130613,113326
9523,519,7,130613,113327
9526,520,7,130613,113330
9528,517,7,130616,113330
9530,516,7,130621,113336
9533,518,7,130621,113324
9535,515,7,130612,113329
9538,513,7,130616,113338
9540,515,7,130617,113338
9543,515,7,130613,113322
9545,520,7,130613,113323
9548,522,7,130618,113326
9550,521,7,130607,113326
9552,519,7,130630,113328
9555,514,7,130630,113335
9558,519,7,130614,113334
9561,518,7,130614,113334
9563,515,7,130609,113337
9566,518,7,130609,113327
9568,519,7,130608,113327
9570,520,7,130605,113327
9573,514,7,130605,113325
9575,515,7,130599,113320
9578,514,7,130575,113320
9580,509,7,130573,113307
9583,510,7,130566,113315
9585,507,7,130566,113315
9588,511,7,130555,113314
9590,510,7,130551,113315
9592,509,7,130551,113317
9595,507,7,130548,113317
9597,504,7,130549,113317
9601,503,7,130549,113316
9603,501,7,130546,113311
9606,499,7,130510,113308
9608,499,7,130537,113308
9610,506,7,130531,113313
9613,507,7,130531,113305
9615,510,7,130525,113300
9618,509,7,130523,113300
9620,506,7,130523,113313
9623,507,7,130527,113313
9625,507,7,130527,113305
9628,504,7,130530,113305
9630,504,7,130535,113314
9632,504,7,130542,113309
9635,502,7,130542,113324
9637,498,7,130545,113324
9640,500,7,130537,113326
9643,504,7,130543,113326
9646,506,7,130542,113326
9648,507,7,130555,113325
9650,507,7,130555,113320
9653,508,7,130548,113320
9655,508,7,130549,113320
9658,506,7,130549,113318
9660,504,7,130549,113320
9663,501,7,130553,113318
9665,501,7,130556,113323
9668,506,7,130556,113323
9670,508,7,130568,113324
9672,509,7,130568,113323
9675,505,7,130565,113332
9677,507,7,130566,113329
9680,508,7,130574,113336
9682,508,7,130576,113333
9686,508,7,130575,113333
9688,508,7,130573,113327
9690,507,7,130578,113337
9693,507,7,130596,113337
9695,506,7,130579,113325
9698,505,7,130589,113329
9700,509,7,130578,113329
9703,510,7,130578,113333
9705,507,7,130592,113343
9708,505,7,130592,113331
9710,504,7,130584,113330
9712,509,7,130583,113330
9715,510,7,130586,113331
9717,510,7,130586,113330
9720,511,7,130588,113334
9722,513,7,130574,113329
9725,511,7,130581,113332
9728,508,7,130595,113337
9730,506,7,130591,113335
9733,510,7,130603,113337
9735,514,7,130591,113329
9738,512,7,130577,113334
9740,510,7,130580,113325
9743,507,7,130582,113325
9745,505,7,130572,113319
9748,504,7,130584,113326
9750,507,7,130564,113322
9752,512,7,130583,113314
9755,513,7,130581,113312
9757,512,7,130569,113324
9760,517,7,130576,113320
9762,519,7,130587,113323
9765,517,7,130571,113325
9767,512,7,130586,113314
9769,512,7,130579,113323
9773,513,7,130568,113326
9775,512,7,130582,113326
9778,511,7,130594,113321
9780,507,7,130584,113326
9783,507,7,130591,113327
9785,505,7,130594,113326
9788,507,7,130590,113327
9790,507,7,130597,113326
9792,510,7,130604,113332
9795,509,7,130598,113324
9797,513,7,130597,113340
9800,514,7,130601,113341
9802,510,7,130601,113333
9805,508,7,130607,113343
9807,509,7,130619,113342
9809,513,7,130610,113344
9812,516,7,130610,113339
9815,513,7,130604,113340
9818,512,7,130606,113332
9820,508,7,130604,113329
9823,510,7,130599,113335
9825,513,7,130605,113339
9828,512,7,130605,113331
9830,513,7,130598,113336
9832,511,7,130595,113331
9835,512,7,130598,113326
9837,512,7,130591,113329
9840,513,7,130592,113333
9842,512,7,130594,113328
9845,511,7,130584,113330
9847,512,7,130586,113322
9849,518,7,130581,113326
9852,521,7,130583,113323
9854,517,7,130582,113325
9858,515,7,130579,113325
9860,510,7,130577,113319
9863,513,7,130584,113321
9865,516,7,130598,113323
9868,512,7,130582,113323
9870,513,7,130588,113329
9872,510,7,130586,113331
9875,512,7,130585,113322
9877,512,7,130597,113326
9880,513,7,130580,113325
9882,512,7,130587,113320
9885,514,7,130588,113331
9887,513,7,130593,113331
9889,517,7,130593,113332
9892,519,7,130599,113327
9894,514,7,130592,113337
9897,514,7,130592,113337
9900,510,7,130596,113331
9903,513,7,130592,113330
9905,517,7,130593,113328
9908,514,7,130590,113336
9910,516,7,130592,113329
9912,517,7,130583,113327
9915,511,7,130599,113321
9917,506,7,130572,113326
9920,509,7,130592,113324
9922,509,7,130582,113323
9925,511,7,130582,113313
9927,510,7,130579,113314
9929,513,7,130572,113314
9932,514,7,130585,113313
9934,514,7,130582,113311
9937,515,7,130572,113310
9939,514,7,130573,113306
9943,513,7,130558,113307
9945,509,7,130556,113308
9948,509,7,130566,113308
9950,511,7,130580,113312
9952,513,7,130580,113313
9955,516,7,130572,113307
9957,513,7,130573,113307
9960,512,7,130574,113307
9962,511,7,130574,113310
9965,514,7,130576,113311
9967,516,7,130580,113310
9969,514,7,130574,113310
9972,513,7,130591,113321
9974,512,7,130591,113313
9977,512,7,130572,113311
9979,514,8,130584,113314
9982,513,7,130583,113321
9985,517,7,130582,113315
9988,520,7,130582,113307
9990,520,7,130594,113320
9992,517,7,130591,113320
9995,512,7,130592,113320
9997,510,7,130592,113322
10000,511,7,130593,113324
10002,509,7,130595,113328
10005,512,7,130601,113320
10007,515,7,130592,113323
10009,512,7,130587,113323
10012,509,7,130594,113318
10014,506,7,130594,113325
10017,504,7,130585,113319
10019,501,7,130591,113319
10022,504,7,130589,113321
10024,503,7,130590,113315
10028,505,7,130587,113315
10030,509,7,130591,113316
10032,504,7,130591,113310
10035,501,7,130590,113313
10037,504,7,130590,113312
10040,507,7,130582,113306
10042,507,7,130574,113306
10045,502,7,130577,113317
10047,500,7,130577,113302
10049,498,7,130572,113303
10052,498,7,130578,113303
10054,502,7,130581,113305
10057,504,7,130581,113301
10059,507,7,130573,113301
10062,511,7,130573,113303
10064,508,7,130576,113303
10067,504,7,130581,113306
10070,506,7,130581,113300
10072,505,7,130581,113311
10075,503,7,130583,113311
10077,505,7,130580,113306
10080,510,7,130580,113313
10082,509,7,130559,113313
10085,507,7,130588,113310
10087,507,7,130588,113307
10089,511,7,130582,113307
10092,512,7,130582,113311
10094,506,7,130591,113304
10097,503,7,130588,113304
10099,505,7,130595,113312
10102,510,7,130595,113312
10104,518,7,130589,113306
10107,521,7,130588,113306
10109,521,7,130594,113308
10112,527,7,130594,113309
10115,532,7,130578,113313
10117,540,7,130597,113311
10120,549,7,130596,113318
10122,556,7,130605,113316
10125,558,7,130594,113316
10127,558,7,130606,113324
10129,556,7,130606,113315
10132,554,7,130609,113326
10134,543,7,130615,113326
10137,530,7,130620,113332
10139,514,7,130620,113332
10142,502,8,130625,113342
10144,494,7,130630,113343
10147,494,7,130637,113343
10149,495,7,130645,113343
10151,492,7,130645,113343
10155,489,7,130632,113350
10157,494,7,130648,113349
10160,498,7,130635,113357
10162,500,7,130645,113352
10165,500,7,130647,113352
10167,501,7,130657,113363
10169,501,7,130657,113368
10172,502,7,130663,113366
10174,502,7,130662,113366
10177,500,7,130679,113364
10179,497,7,130679,113367
10182,496,7,130657,113359
10184,500,7,130656,113362
10187,500,7,130656,113351
10189,499,7,130647,113354
10191,500,7,130666,113354
10194,500,7,130654,113351
10196,509,7,130654,113354
10200,512,7,130640,113348
10202,514,7,130647,113346
10205,510,7,130635,113335
10207,503,7,130650,113344
10209,502,7,130637,113341
10212,506,7,130624,113340
10214,505,7,130626,113342
10217,503,7,130632,113327
10219,505,7,130634,113328
10222,508,7,130638,113328
10224,507,7,130622,113335
10227,508,7,130631,113333
10229,511,7,130632,113335
10231,513,7,130644,113338
10234,513,7,130644,113346
10236,504,7,130639,113334
10240,502,7,130633,113348
10242,504,7,130637,113345
10245,505,7,130650,113349
10247,508,7,130643,113347
10249,514,7,130652,113351
10252,518,7,130643,113347
10254,515,7,130636,113345
10257,514,7,130644,113340
10259,515,7,130630,113339
10262,512,7,130635,113337
10264,511,7,130636,113339
10267,511,7,130637,113337
10269,510,7,130632,113330
10271,512,7,130626,113328
10274,511,7,130625,113324
10276,514,7,130612,113324
10279,515,7,130609,113329
10281,512,7,130617,113315
10285,513,7,130616,113317
10287,510,7,130609,113318
10289,512,7,130599,113320
10292,514,7,130609,113304
10294,510,7,130600,113314
10297,509,7,130613,113314
10299,507,7,130611,113318
10302,511,7,130600,113316
10304,515,7,130609,113320
10307,512,7,130602,113312
10309,512,7,130599,113317
10311,510,7,130610,113319
10314,512,7,130614,113323
10316,512,7,130602,113319
10319,514,7,130612,113314
10321,513,7,130606,113322
10324,513,7,130604,113320
10327,513,7,130606,113325
10329,517,7,130612,113322
10332,521,7,130617,113325
10334,519,7,130610,113318
10337,519,7,130606,113325
10339,516,7,130622,113319
10342,521,7,130622,113321
10344,524,7,130611,113323
10347,519,7,130606,113319
10349,520,7,130599,113329
10351,516,7,130609,113321
10354,516,7,130613,113330
10356,516,7,130611,113328
10359,517,7,130607,113318
10361,516,7,130598,113323
10364,519,7,130588,113316
10366,517,7,130591,113318
10369,521,7,130587,113312
10372,523,7,130580,113306
10374,517,7,130569,113308
10377,516,7,130556,113308
10379,512,7,130562,113301
10382,514,7,130556,113295
10384,517,7,130548,113296
10387,514,7,130531,113293
10389,516,7,130539,113293
10391,518,7,130517,113279
10394,512,7,130510,113286
10396,507,7,130503,113288
10399,508,7,130492,113275
10401,509,7,130498,113275
10404,509,7,130494,113272
10406,508,7,130496,113277
10408,510,7,130485,113277
10412,510,7,130493,113284
10414,511,7,130491,113274
10417,510,7,130486,113271
10419,507,7,130488,113270
10422,506,7,130489,113274
10424,503,7,130480,113275
10427,505,7,130489,113275
10429,505,7,130488,113275
10431,508,7,130488,113274
10434,509,7,130486,113276
10436,504,7,130481,113276
10439,505,7,130493,113274
10441,505,7,130495,113280
10444,507,7,130495,113281
10446,508,7,130490,113295
10448,505,7,130497,113295
10451,503,7,130503,113282
10454,507,7,130503,113281
10457,508,7,130501,113287
10459,505,7,130499,113282
10462,506,7,130506,113285
10464,506,7,130506,113281
10467,507,7,130509,113283
10469,506,7,130503,113276
10471,509,7,130505,113282
10474,508,7,130507,113282
10476,506,7,130500,113282
10479,510,7,130509,113281
10481,510,7,130509,113284
10484,511,7,130510,113287
10486,509,7,130518,113284
10488,510,7,130521,113284
10491,512,7,130523,113291
10493,514,7,130523,113289
10497,514,7,130521,113293
10499,510,7,130516,113293
10502,510,7,130519,113287
10504,509,7,130520,113283
10507,510,7,130512,113283
10509,513,7,130510,113279
10511,508,7,130510,113271
10514,504,7,130506,113274
10516,507,7,130506,113276
10519,510,7,130505,113275
10521,511,7,130504,113275
10524,508,7,130505,113270
10526,506,7,130507,113266
10528,505,7,130501,113266
10531,504,7,130508,113268
10533,508,7,130506,113268
10536,513,7,130502,113280
10539,509,7,130502,113270
10542,511,7,130513,113270
10544,512,7,130513,113271
10547,508,7,130510,113266
10549,507,7,130513,113266
10551,510,7,130516,113274
10554,508,8,130516,113272
10556,511,7,130513,113268
10559,510,7,130518,113268
10561,507,7,130515,113276
10564,510,7,130515,113267
10566,508,7,130520,113275
10568,509,7,130488,113275
10571,511,7,130525,113275
10573,516,7,130530,113279
10576,516,7,130530,113280
10578,518,7,130538,113286
10582,515,7,130509,113286
10584,513,7,130550,113288
10587,514,7,130550,113297
10589,520,7,130554,113301
10591,520,7,130558,113298
10594,515,7,130565,113298
10596,510,7,130577,113303
10599,509,7,130577,113306
10601,509,7,130569,113305
10604,509,7,130554,113305
10606,511,7,130580,113308
10608,515,7,130580,113304
10611,515,7,130573,113312
10613,515,7,130567,113312
10616,516,7,130572,113311
10618,514,7,130567,113311
10621,514,7,130567,113297
10624,510,7,130567,113305
10627,509,7,130556,113305
10629,511,7,130567,113298
10631,511,7,130567,113292
10634,511,7,130558,113288
10636,515,7,130546,113290
10639,515,7,130553,113290
10641,513,7,130540,113285
10644,510,7,130540,113283
10646,507,7,130541,113279
10648,508,7,130526,113279
10651,508,7,130526,113275
10653,508,7,130526,113271
10656,507,7,130517,113271
10658,507,7,130509,113265
10661,509,7,130521,113265
10663,508,7,130517,113267
10667,507,7,130515,113263
10669,506,7,130517,113268
10671,507,7,130517,113268
10674,508,7,130512,113264
10676,506,7,130530,113263
10679,507,7,130518,113265
10681,508,7,130514,113267
10684,508,7,130522,113266
10686,510,7,130505,113276
10688,507,7,130517,113262
10691,507,7,130520,113268
10693,504,7,130526,113269
10696,501,7,130529,113265
10698,501,7,130526,113264
10701,502,7,130513,113269
10703,507,7,130520,113266
10706,509,7,130525,113271
10708,513,7,130523,113280
10711,514,7,130534,113276
10714,513,7,130526,113279
10716,513,7,130534,113275
10719,510,7,130541,113275
10721,508,7,130533,113275
10724,510,7,130543,113284
10726,514,7,130538,113283
10728,512,7,130542,113283
10731,509,7,130550,113276
10733,509,7,130546,113279
10736,510,7,130536,113280
10738,515,7,130539,113277
10741,517,7,130523,113273
10743,515,7,130532,113277
10746,514,7,130530,113271
10748,511,7,130511,113265
10750,513,7,130519,113264
10754,515,7,130518,113268
10756,513,7,130516,113259
10759,514,7,130508,113257
10761,512,7,130508,113253
10764,514,7,130498,113250
10766,512,7,130494,113247
10768,513,7,130499,113252
10771,513,7,130498,113242
10773,515,7,130487,113249
10776,516,7,130490,113242
10778,511,7,130492,113247
10781,507,7,130493,113246
10783,509,7,130506,113250
10786,512,7,130492,113252
10788,512,7,130507,113251
10790,509,7,130507,113249
10793,507,7,130511,113254
10796,503,7,130513,113258
10799,505,7,130526,113257
10801,505,7,130511,113265
10804,506,7,130520,113266
10806,504,7,130522,113271
10808,506,7,130528,113266
10811,506,7,130533,113270
10813,505,7,130532,113270
10816,505,7,130523,113264
10818,501,7,130526,113263
10821,497,7,130521,113271
10823,500,7,130523,113271
10826,503,7,130527,113265
10828,504,7,130523,113267
10830,504,7,130520,113263
10833,504,7,130517,113264
10835,500,7,130522,113262
10839,504,7,130520,113264
10841,505,7,130520,113269
10844,507,7,130526,113264
10846,506,7,130516,113261
10848,507,7,130515,113254
10851,510,7,130511,113255
10853,506,7,130512,113256
10856,501,7,130506,113259
10858,502,7,130514,113248
10861,505,7,130515,113254
10863,507,7,130504,113260
10866,507,7,130505,113260
10868,503,7,130511,113257
10870,506,7,130508,113250
10873,509,7,130516,113256
10875,505,7,130516,113266
10878,502,7,130519,113266
10881,502,7,130524,113266
10884,506,7,130524,113267
10886,513,7,130532,113274
10888,514,7,130538,113271
10891,519,7,130534,113273
10893,519,7,130545,113267
10896,520,7,130534,113276
10898,528,7,130535,113269
10901,531,7,130546,113281
10903,549,7,130540,113274
10906,555,7,130539,113272
10908,559,7,130545,113279
10910,556,7,130546,113281
10913,546,7,130549,113287
10915,542,7,130560,113277
10918,535,7,130558,113284
10920,513,7,130560,113289
10924,504,7,130574,113289
10926,499,7,130565,113287
10928,492,7,130568,113287
10931,489,7,130572,113299
10933,487,7,130581,113297
10936,487,7,130578,113304
10938,488,7,130572,113288
10941,489,7,130580,113298
10943,489,7,130561,113296
10946,492,7,130568,113296
10948,498,7,130573,113285
10950,502,7,130573,113282
10953,504,7,130574,113287
10955,501,7,130559,113287
10958,500,7,130567,113285
10960,499,7,130567,113290
10963,503,7,130570,113287
10966,505,7,130564,113287
10968,504,7,130557,113282
10971,505,7,130561,113287
10973,503,7,130561,113283
10976,502,7,130555,113275
10978,504,7,130553,113275
10981,503,7,130558,113286
10983,508,7,130558,113278
10986,509,7,130555,113286
10988,507,7,130565,113288
10990,505,7,130564,113288
10993,500,7,130562,113285
10995,498,7,130562,113289
10998,500,7,130559,113286
11000,499,7,130572,113286
11003,505,7,130572,113287
11005,508,7,130574,113287
11008,506,7,130575,113290
11011,505,7,130578,113292
11013,504,7,130578,113292
11016,503,7,130581,113291
11018,501,7,130569,113291
11021,501,7,130580,113302
11023,506,7,130580,113299
11026,511,7,130587,113291
11028,514,7,130575,113291
11030,514,7,130582,113298
11033,510,7,130583,113291
11035,508,7,130586,113291
11038,509,7,130586,113288
11040,513,7,130575,113288
11043,517,7,130579,113293
11045,512,7,130579,113286
11047,513,7,130578,113298
11051,513,7,130576,113298
11053,509,7,130581,113296
11056,504,7,130581,113294
11058,502,7,130575,113291
11061,503,7,130538,113291
11063,504,7,130576,113290
11066,512,7,130562,113285
11068,513,7,130562,113275
11070,516,7,130565,113281
11073,516,7,130570,113281
11075,513,7,130558,113277
11078,511,7,130558,113271
11080,511,7,130553,113271
11083,514,7,130553,113278
11085,518,7,130555,113278
11087,521,7,130552,113279
11090,513,7,130552,113276
11092,512,7,130568,113276
11096,512,7,130565,113283
11098,511,7,130573,113281
11101,508,7,130573,113279
11103,508,7,130567,113286
11106,509,7,130572,113286
11108,514,7,130584,113297
11110,515,7,130584,113297
11113,515,7,130585,113299
11115,520,7,130584,113294
11118,520,7,130590,113294
11120,519,7,130590,113302
11123,518,7,130590,113301
11125,516,7,130592,113300
11127,517,7,130588,113300
11130,517,7,130589,113303
11132,516,7,130589,113303
11136,514,7,130591,113301
11138,514,7,130587,113301
11141,514,7,130600,113300
11143,511,7,130594,113302
11146,509,7,130594,113301
11148,509,7,130585,113291
11150,514,7,130570,113291
11153,516,7,130569,113281
11155,515,7,130572,113281
11158,515,7,130556,113281
11160,514,7,130564,113292
11163,510,7,130564,113287
11165,506,7,130550,113285
11167,508,7,130532,113284
11170,508,7,130538,113282
11172,509,7,130534,113281
11175,510,7,130516,113279
11177,511,7,130517,113270
11181,511,7,130514,113277
11183,501,7,130505,113275
11186,498,7,130509,113283
11188,498,7,130520,113289
11190,500,7,130510,113281
11193,506,7,130520,113285
11195,507,7,130524,113285
11198,504,7,130503,113288
11200,501,7,130512,113290
11203,500,7,130518,113293
11205,505,7,130511,113291
11207,507,7,130512,113288
11210,507,7,130493,113285
11212,503,7,130496,113284
