TimeStamp,ECG Data,GSR Data,PPG_Red Data,PPG_IR Data
14852,512,24,126183,115789
14854,510,24,126180,115789
14857,507,24,126176,115788
14850,512,24,126214,115789
14852,512,24,126183,115789
14854,510,24,126180,115789
14857,507,24,126176,115788
6,514,4,0,0
8,541,4,57554,57539
11,568,4,73926,73956
13,575,4,90302,90333
15,566,4,106672,106706
18,546,4,123086,116102
20,504,5,127038,116097
23,489,4,127047,116097
25,478,4,127053,116102
28,474,5,127064,116102
30,473,5,127072,116103
33,473,5,127074,116105
35,473,5,127074,116111
37,478,5,127085,116105
40,485,5,127101,116111
43,495,5,127098,116116
46,494,5,127103,116117
48,484,5,127117,116114
51,466,5,127120,116120
53,432,5,127133,116121
55,421,5,127133,116123
58,411,5,127134,116119
60,407,5,127140,116125
63,403,5,127140,116129
65,404,5,127154,116129
68,410,5,127156,116127
70,420,5,127158,116132
73,421,5,127165,116144
75,421,5,127173,116132
77,421,6,127181,116143
80,422,6,127197,116148
82,423,6,127195,116146
86,425,6,127204,116150
88,430,6,127204,116159
91,435,6,127212,116160
93,441,6,127222,116162
95,441,6,127212,116164
98,442,6,127219,116156
100,443,6,127239,116168
103,443,6,127244,116165
105,448,6,127256,116170
108,453,6,127254,116176
110,459,6,127252,116175
113,463,6,127263,116177
115,465,6,127259,116181
117,465,6,127263,116183
120,466,6,127281,116181
122,466,6,127286,116187
125,470,6,127285,116191
128,474,6,127285,116188
131,479,6,127297,116193
133,483,6,127293,116187
135,482,6,127303,116193
138,483,6,127306,116189
140,483,6,127307,116199
143,483,6,127312,116194
145,486,6,127305,116209
148,490,6,127309,116204
150,493,6,127334,116205
153,496,6,127333,116205
155,496,6,127333,116211
157,496,6,127340,116215
160,496,6,127336,116207
162,495,6,127349,116210
165,496,6,127347,116218
167,502,6,127352,116224
171,504,7,127365,116223
173,508,6,127352,116215
175,508,6,127358,116223
178,507,6,127362,116229
180,506,7,127366,116197
183,506,7,127370,116235
185,508,7,127390,116235
188,512,7,127394,116236
190,515,6,127402,116240
193,518,7,127400,116233
195,517,7,127401,116237
197,516,7,127402,116239
200,515,7,127410,116242
202,514,7,127405,116241
205,517,7,127406,116234
207,521,7,127404,116236
210,525,7,127404,116237
212,527,7,127393,116227
215,526,7,127382,116227
218,524,7,127353,116213
220,522,7,127332,116195
223,521,7,127287,116184
225,522,7,127251,116166
228,525,7,127199,116143
230,530,7,127150,116125
233,531,7,127150,116102
235,529,7,127036,116081
237,528,7,126969,116081
240,526,7,126919,116043
242,524,7,126851,116013
245,524,7,126851,115999
247,528,7,126731,115968
250,531,7,126672,115968
252,531,7,126643,115942
254,530,7,126599,115928
258,527,7,126551,115913
260,526,7,126551,115890
263,525,7,126461,115880
265,528,7,126427,115864
268,530,7,126427,115850
270,534,7,126377,115843
273,535,7,126353,115843
275,532,7,126341,115839
277,531,7,126341,115833
280,530,7,126308,115829
282,529,7,126292,115829
285,529,7,126300,115823
287,534,7,126277,115816
290,536,7,126273,115822
292,537,7,126273,115817
294,536,7,126270,115818
297,534,7,126276,115821
300,533,7,126278,115821
303,531,7,126276,115823
305,531,7,126276,115822
308,535,7,126286,115831
310,537,7,126298,115831
313,539,7,126312,115834
315,535,7,126316,115839
317,534,7,126316,115843
320,532,7,126343,115852
322,530,7,126354,115852
325,530,7,126371,115855
327,534,7,126371,115863
330,538,7,126383,115868
332,539,7,126411,115868
334,537,7,126434,115870
337,535,7,126457,115886
339,533,7,126457,115893
343,532,7,126494,115893
345,533,7,126507,115903
348,536,7,126530,115912
350,541,7,126530,115919
353,542,7,126544,115928
355,542,7,126582,115928
357,540,7,126599,115929
360,539,7,126619,115940
362,537,7,126625,115940
365,539,7,126625,115954
367,542,7,126646,115957
370,544,7,126670,115957
372,545,7,126670,115961
374,543,7,126694,115969
377,542,7,126709,115969
379,541,7,126693,115970
382,538,7,126729,115983
385,539,7,126754,115983
388,543,7,126754,115986
390,545,8,126754,115991
393,544,7,126768,115991
395,541,7,126768,115990
397,539,7,126782,115996
400,538,7,126799,115996
402,536,7,126805,115998
405,537,7,126805,116007
407,539,7,126818,116004
410,541,7,126822,116004
412,542,7,126853,116010
414,538,8,126853,116018
417,537,8,126867,116018
419,536,8,126877,116031
422,533,7,126877,116033
424,534,7,126891,116035
428,537,7,126911,116035
430,538,7,126915,116039
433,539,8,126915,116046
435,537,7,126928,116043
437,536,7,126928,116043
440,534,7,126951,116047
442,533,7,126948,116051
445,535,8,126948,116054
447,537,7,126964,116056
450,540,7,126967,116056
452,540,7,126973,116052
454,539,7,126973,116063
457,536,7,126974,116067
459,534,7,126984,116067
462,532,7,126983,116062
464,532,7,126984,116066
467,534,7,126988,116067
470,538,7,126996,116065
473,538,8,126994,116066
475,536,7,126987,116071
477,534,7,126987,116064
480,530,8,126984,116063
482,528,7,126982,116063
485,528,7,126972,116065
487,530,7,126977,116059
490,532,7,126975,116064
492,533,7,126970,116057
494,531,7,126965,116062
497,529,7,126958,116059
499,524,8,126956,116054
502,521,7,126954,116057
504,521,7,126944,116047
507,523,7,126949,116048
509,528,7,126952,116042
513,528,7,126945,116043
515,527,7,126929,116040
517,525,7,126924,116041
520,523,7,126924,116032
522,519,7,126918,116035
525,519,7,126904,116035
527,523,7,126906,116029
530,525,7,126901,116033
532,527,7,126900,116029
534,525,7,126896,116032
537,523,7,126899,116028
539,523,7,126905,116027
542,520,7,126896,116030
544,522,7,126902,116026
547,526,7,126906,116034
549,528,7,126904,116027
552,529,7,126904,116040
555,527,7,126899,116031
557,525,7,126907,116035
560,523,7,126921,116034
562,518,7,126923,116042
565,516,7,126940,116041
567,517,7,126945,116042
570,520,7,126942,116050
572,522,7,126942,116041
574,524,7,126957,116045
577,531,7,126947,116051
579,537,7,126961,116054
582,542,7,126972,116054
584,550,7,126979,116056
587,561,7,126982,116062
589,579,7,126992,116062
592,590,7,126995,116073
594,598,7,127006,116065
596,607,7,127008,116072
600,610,7,127012,116082
602,596,7,127023,116071
605,584,7,127031,116079
607,567,7,127048,116082
610,546,7,127049,116086
612,526,7,127059,116081
614,519,7,127065,116093
617,514,7,127066,116095
619,511,7,127077,116102
622,508,7,127077,116095
624,508,7,127076,116102
627,510,7,127101,116099
629,512,7,127099,116105
632,513,7,127095,116107
634,510,7,127112,116111
636,509,7,127127,116116
640,508,7,127126,116112
642,507,7,127126,116098
645,508,8,127136,116113
647,511,7,127147,116126
650,515,7,127144,116127
652,517,7,127150,116128
654,516,7,127159,116122
657,515,8,127170,116133
659,514,7,127168,116129
662,512,7,127175,116133
664,514,7,127198,116135
667,518,7,127184,116136
669,520,7,127196,116144
672,523,7,127193,116118
674,521,7,127201,116148
676,521,7,127203,116138
679,520,7,127212,116146
681,519,7,127219,116152
685,519,7,127222,116151
687,524,7,127230,116157
690,526,7,127242,116153
692,528,7,127243,116151
694,527,8,127243,116156
697,525,7,127247,116159
699,523,7,127248,116163
702,521,7,127270,116162
704,521,7,127264,116161
707,524,7,127262,116164
709,529,7,127284,116174
712,529,7,127284,116171
714,527,7,127284,116168
716,525,7,127289,116168
719,522,7,127298,116182
721,520,7,127304,116173
724,520,7,127304,116176
727,523,7,127301,116183
730,526,7,127306,116183
732,527,7,127318,116185
734,525,7,127313,116178
737,522,7,127327,116192
739,520,7,127327,116187
742,518,7,127334,116187
744,520,7,127336,116192
747,522,7,127336,116193
749,525,7,127343,116194
752,527,8,127337,116194
754,524,8,127345,116198
756,523,7,127345,116189
759,520,7,127341,116190
761,518,7,127333,116190
764,517,7,127316,116188
766,521,7,127296,116167
770,523,7,127271,116169
772,525,7,127271,116142
774,522,7,127239,116131
777,520,7,127152,116124
779,518,7,127106,116124
782,515,7,127049,116077
784,516,7,127049,116046
787,519,8,126993,116039
789,522,7,126864,116039
792,523,7,126802,116011
794,521,7,126742,115957
796,520,8,126742,115945
799,518,7,126635,115919
801,516,7,126572,115919
804,515,7,126526,115882
806,518,7,126526,115866
809,521,7,126480,115846
812,522,7,126398,115846
814,521,7,126366,115836
817,517,7,126346,115816
819,516,7,126346,115807
822,514,7,126287,115807
824,514,7,126261,115800
827,517,7,126249,115793
829,522,7,126249,115778
832,523,7,126222,115777
834,522,7,126194,115777
836,520,7,126189,115771
839,518,7,126180,115765
841,516,7,126171,115765
844,517,7,126171,115770
846,520,7,126161,115767
849,523,7,126159,115767
851,524,8,126159,115762
854,521,7,126168,115770
857,520,7,126165,115770
859,518,7,126145,115769
862,515,7,126180,115769
864,516,7,126189,115769
867,520,7,126189,115779
869,523,7,126189,115785
872,524,8,126208,115785
874,521,7,126208,115788
876,519,7,126228,115794
879,518,8,126238,115794
881,516,7,126255,115797
884,517,7,126255,115806
886,521,7,126271,115809
889,523,7,126288,115809
891,524,7,126310,115817
893,521,7,126310,115823
897,520,7,126332,115823
899,520,7,126345,115834
902,517,7,126345,115838
904,518,7,126358,115833
907,520,7,126372,115833
909,523,7,126395,115845
912,525,7,126395,115854
914,523,7,126409,115853
916,522,7,126413,115853
919,520,7,126442,115866
921,518,7,126449,115868
924,519,7,126449,115871
926,522,7,126465,115864
929,525,7,126466,115864
931,526,7,126468,115872
933,526,8,126468,115878
936,522,7,126478,115874
939,521,7,126484,115874
942,518,7,126493,115872
944,518,7,126492,115878
947,520,7,126500,115879
949,527,7,126519,115892
952,527,7,126529,115886
954,525,7,126531,115889
956,523,7,126531,115892
959,519,7,126537,115901
961,517,7,126541,115901
964,517,7,126556,115898
966,519,7,126564,115898
969,522,7,126572,115906
971,524,7,126578,115910
973,524,7,126594,115910
976,523,7,126607,115911
978,520,7,126623,115924
982,518,7,126629,115930
984,518,7,126650,115928
987,520,7,126672,115932
989,525,7,126688,115936
992,526,7,126706,115943
994,525,7,126705,115941
996,523,7,126708,115948
999,522,7,126719,115947
1001,520,7,126721,115947
1004,520,7,126736,115959
1006,523,7,126754,115958
1009,525,7,126749,115960
1011,527,7,126755,115961
1013,524,7,126774,115970
1016,522,7,126786,115960
1018,520,7,126782,115965
1021,518,7,126781,115969
1024,520,7,126785,115963
1027,523,7,126790,115977
1029,526,7,126782,115966
1032,528,7,126794,115972
1034,526,7,126782,115973
1036,523,7,126783,115972
1039,521,7,126794,115969
1041,518,7,126795,115969
1044,518,7,126790,115965
1046,520,7,126788,115967
1049,523,7,126781,115962
1051,524,7,126773,115958
1053,524,7,126773,115959
1056,521,7,126764,115956
1058,519,7,126765,115959
1061,517,7,126771,115954
1063,517,7,126770,115965
1067,519,7,126766,115956
1069,524,7,126762,115956
1072,525,7,126750,115954
1074,525,7,126744,115952
1076,523,7,126755,115953
1079,520,7,126747,115952
1081,518,7,126735,115956
1084,518,7,126742,115947
1086,521,7,126735,115944
1089,525,7,126734,115950
1091,527,7,126737,115945
1093,525,7,126735,115948
1096,523,7,126735,115949
1098,520,7,126736,115943
1101,515,7,126728,115948
1103,510,7,126733,115950
1106,511,7,126738,115949
1108,513,7,126745,115955
1112,517,7,126747,115952
1114,523,7,126751,115955
1116,527,7,126753,115958
1119,531,7,126749,115957
1121,538,7,126761,115938
1124,548,7,126767,115957
1126,556,7,126774,115961
1129,567,7,126772,115970
1131,586,7,126780,115979
1133,596,7,126790,115971
1136,602,7,126810,115975
1138,604,7,126805,115977
1141,583,7,126803,115982
1143,566,7,126821,115979
1146,551,7,126826,115977
1148,537,7,126838,115983
1152,525,7,126838,115989
1154,510,7,126848,115994
1156,505,7,126856,115986
1159,501,7,126866,115998
1161,497,7,126870,115998
1164,495,7,126869,115996
1166,496,7,126887,115997
1169,498,7,126900,116003
1171,499,8,126897,116005
1173,498,7,126897,116002
1176,496,7,126909,116006
1178,495,7,126917,116002
1181,493,7,126928,116012
1183,493,7,126926,116017
1186,495,7,126943,116020
1188,501,7,126954,116027
1191,502,7,126954,116020
1193,501,7,126961,116024
1196,500,7,126965,116024
1199,497,8,126986,116038
1201,496,7,126984,116031
1204,496,7,126984,116033
1206,500,7,126994,116030
1209,503,7,126998,116030
1211,506,7,127007,116041
1213,505,7,127007,116042
1216,502,7,127022,116040
1218,502,7,127028,116040
1221,501,7,127034,116053
1223,501,7,127041,116038
1226,503,7,127041,116049
1228,506,7,127047,116049
1231,508,7,127057,116049
1233,507,7,127067,116052
1235,505,7,127067,116060
1239,504,7,127072,116065
1241,502,7,127073,116065
1244,501,7,127084,116062
1246,506,7,127093,116068
1249,509,7,127096,116077
1251,512,7,127096,116067
1253,510,7,127098,116075
1256,508,7,127106,116081
1258,507,7,127120,116081
1261,503,7,127124,116082
1263,504,7,127124,116077
1266,508,7,127134,116084
1268,510,8,127140,116084
1271,513,7,127154,116087
1273,512,7,127156,116089
1275,511,7,127156,116092
1278,509,7,127160,116100
1281,508,7,127160,116100
1284,509,7,127171,116100
1286,511,7,127168,116100
1289,513,7,127185,116105
1291,516,7,127185,116095
1293,514,7,127178,116102
1296,512,7,127177,116103
1298,512,7,127175,116103
1301,509,7,127175,116091
1303,509,7,127133,116091
1306,511,7,127113,116079
1308,516,7,127113,116063
1311,516,7,127087,116049
1313,516,7,126999,116049
1315,515,7,126959,116031
1318,512,7,126911,115994
1320,510,7,126843,115994
1324,511,7,126843,115953
1326,515,7,126793,115932
1329,517,7,126661,115932
1331,518,7,126661,115883
1333,516,7,126624,115868
1336,514,7,126506,115868
1338,513,7,126411,115843
1341,510,7,126402,115812
1343,510,7,126364,115812
1346,516,7,126364,115784
1348,518,7,126329,115773
1351,519,7,126256,115773
1353,516,7,126256,115748
1355,514,7,126230,115740
1358,513,8,126175,115740
1360,512,7,126159,115736
1363,512,7,126159,115722
1366,515,7,126130,115723
1369,517,7,126117,115723
1371,519,7,126094,115712
1373,517,7,126094,115711
1538,508,7,126543,115854
1541,505,7,126546,115854
1532,512,7,126509,115846
1536,510,7,126535,115845
1538,508,7,126543,115854
1541,505,7,126546,115854
1543,504,7,126560,115853
1546,506,7,126560,115860
1548,509,7,126566,115860
1551,509,7,126577,115864
1553,505,7,126576,115870
1555,503,7,126584,115869
1558,502,7,126584,115866
1560,500,7,126593,115864
1563,499,7,126588,115862
1565,500,7,126599,115871
1568,503,7,126580,115861
1570,503,7,126592,115857
1572,500,7,126592,115857
1575,499,7,126590,115863
1577,497,7,126600,115863
1581,494,7,126588,115864
1583,495,7,126588,115864
1586,498,7,126595,115857
1588,501,7,126578,115864
1591,503,7,126583,115841
1593,500,7,126581,115861
1595,499,7,126580,115860
1598,498,7,126575,115860
1600,496,7,126573,115858
1603,495,7,126563,115866
1605,500,7,126569,115864
1608,502,7,126562,115851
1610,503,7,126550,115857
1612,501,7,126561,115858
1615,499,7,126559,115857
1617,498,7,126542,115857
1620,495,7,126544,115854
1623,496,7,126544,115849
1626,498,7,126551,115846
1628,500,7,126541,115846
1631,499,7,126545,115850
1633,491,7,126545,115853
1635,489,7,126552,115847
1638,488,7,126552,115847
1640,488,7,126548,115850
1643,494,7,126548,115852
1645,499,7,126556,115844
1648,503,7,126556,115849
1650,507,7,126561,115852
1652,508,7,126556,115852
1655,514,7,126569,115859
1657,521,7,126577,115855
1660,529,7,126586,115860
1662,545,7,126576,115862
1666,559,7,126592,115858
1668,578,7,126606,115866
1671,574,7,126606,115863
1673,556,7,126617,115872
1675,540,7,126623,115872
1678,512,7,126644,115876
1680,501,7,126645,115886
1683,497,7,126645,115891
1685,497,7,126661,115888
1688,498,7,126670,115888
1690,499,7,126679,115893
1692,498,7,126679,115892
1695,495,7,126686,115900
1697,494,7,126690,115900
1700,492,7,126709,115909
1702,491,7,126720,115908
1705,494,7,126720,115913
1708,497,7,126739,115916
1711,499,7,126741,115916
1713,498,7,126748,115917
1715,497,7,126748,115924
1718,496,7,126766,115921
1720,496,7,126773,115921
1723,495,7,126791,115928
1725,501,7,126796,115935
1728,504,7,126805,115939
1730,508,7,126805,115943
1732,508,7,126809,115950
1735,507,7,126822,115953
1737,506,7,126826,115953
1740,503,7,126846,115951
1742,503,7,126846,115959
1745,505,7,126849,115954
1747,507,7,126858,115954
1751,508,7,126865,115966
1753,505,7,126865,115961
1755,504,7,126871,115963
1758,502,7,126880,115970
1760,500,7,126880,115975
1763,501,7,126894,115974
1765,504,7,126901,115974
1768,508,7,126911,115977
1770,512,7,126911,115980
1772,511,7,126916,115984
1775,510,7,126934,115987
1777,509,7,126934,115987
1780,507,7,126934,115991
1782,507,7,126951,115991
1785,510,7,126960,115993
1787,516,7,126960,115998
1790,516,7,126967,115997
1793,515,7,126975,115997
1795,513,7,126991,116004
1798,510,7,126991,116006
1800,507,7,127000,116011
1803,507,7,127001,116011
1805,510,7,127010,116007
1808,514,7,127010,116024
1810,515,7,127023,116024
1812,513,7,127030,116024
1815,511,7,127030,116025
1817,509,7,127022,116023
1820,508,7,127025,116023
1822,507,7,127029,116025
1825,512,7,127029,116021
1827,515,7,127020,116017
1830,515,7,126989,116017
1832,513,7,126989,116005
1835,511,7,126983,115994
1838,509,7,126926,115982
1840,507,7,126926,115965
1843,508,7,126893,115960
1845,512,7,126842,115941
1848,514,7,126794,115941
1850,515,7,126690,115918
1852,513,7,126690,115872
1855,511,7,126564,115872
1857,510,7,126512,115849
1860,509,7,126512,115814
1862,510,7,126461,115788
1865,513,7,126411,115788
1867,516,7,126310,115769
1870,516,7,126310,115744
1872,515,7,126229,115744
1874,513,7,126229,115716
1878,510,7,126199,115709
1880,509,7,126168,115704
1883,510,7,126136,115692
1885,515,7,126103,115685
1888,518,7,126094,115685
1890,518,7,126066,115683
1892,517,7,126047,115677
1895,516,7,126026,115672
1897,514,7,126009,115660
1900,513,7,125994,115654
1902,512,7,125994,115647
1905,514,7,125979,115647
1907,521,7,125978,115646
1910,521,7,125974,115648
1912,520,7,125966,115646
1914,518,7,125968,115649
1917,517,7,125969,115646
1920,513,7,125971,115637
1923,512,7,125972,115643
1925,515,7,125971,115644
1928,518,7,125968,115651
1930,521,7,125972,115655
1932,520,7,125988,115652
1935,518,7,125990,115647
1937,515,7,125992,115653
1940,513,7,125993,115658
1942,512,7,126012,115658
1945,514,7,126027,115662
1947,520,7,126027,115666
1950,520,7,126036,115668
1952,519,7,126047,115669
1954,517,7,126052,115676
1957,516,7,126064,115681
1959,514,7,126073,115673
1963,513,7,126075,115685
1965,515,7,126092,115683
1968,519,7,126102,115699
1970,521,7,126111,115687
1972,520,7,126117,115696
1975,517,7,126118,115695
1977,516,7,126129,115692
1980,514,7,126139,115698
1982,513,7,126141,115701
1985,516,7,126145,115701
1987,521,7,126147,115709
1990,522,7,126159,115706
1992,520,7,126166,115701
1994,518,7,126169,115711
1997,517,7,126186,115713
1999,513,7,126190,115719
2002,513,7,126193,115717
2004,514,7,126197,115722
2008,518,7,126194,115722
2010,520,7,126206,115724
2012,519,7,126212,115725
2015,515,7,126216,115722
2017,514,7,126229,115734
2020,512,7,126246,115732
2022,512,7,126253,115735
2025,514,7,126267,115739
2027,519,7,126272,115737
2030,520,7,126278,115743
2032,520,7,126289,115747
2034,519,7,126306,115757
2037,518,7,126313,115759
2039,515,7,126319,115768
2042,516,7,126347,115767
2044,518,7,126363,115774
2048,521,7,126365,115781
2050,523,7,126382,115777
2052,522,7,126397,115786
2055,520,7,126404,115792
2057,519,7,126420,115805
2060,518,7,126436,115803
2062,517,7,126438,115803
2065,520,7,126454,115811
2067,525,7,126457,115812
2070,526,7,126478,115813
2072,524,7,126475,115815
2074,522,7,126480,115820
2077,520,7,126486,115828
2079,517,7,126485,115823
2082,515,7,126494,115823
2084,517,7,126497,115821
2087,518,7,126507,115826
2089,519,7,126507,115830
2092,517,7,126512,115821
2095,515,7,126511,115828
2097,514,7,126507,115826
2100,509,7,126505,115825
2102,509,7,126508,115817
2105,511,7,126508,115826
2107,515,7,126501,115819
2110,517,7,126503,115821
2112,515,7,126510,115822
2114,514,7,126498,115817
2117,513,7,126501,115815
2119,511,7,126495,115808
2122,511,7,126487,115816
2124,515,7,126480,115807
2127,518,7,126480,115810
2129,520,7,126480,115809
2131,519,7,126474,115809
2135,516,7,126480,115811
2137,515,7,126465,115804
2140,512,7,126473,115804
2142,512,7,126463,115798
2145,514,7,126462,115803
2147,520,7,126466,115798
2150,521,7,126466,115805
2152,520,7,126468,115799
2154,518,7,126469,115799
2157,514,7,126484,115808
2159,509,7,126467,115806
2162,506,7,126467,115802
2164,505,7,126471,115806
2167,507,7,126487,115806
2169,512,7,126487,115812
2171,514,7,126487,115810
2174,518,7,126487,115816
2177,522,7,126499,115816
2180,527,7,126501,115820
2182,542,7,126511,115820
2185,550,7,126511,115829
2187,561,7,126520,115829
2190,572,7,126526,115823
2192,592,7,126534,115831
2194,599,7,126534,115828
2197,604,7,126542,115835
2199,597,7,126556,115835
2202,584,7,126574,115837
2204,553,7,126576,115846
2207,543,7,126585,115851
2209,524,7,126585,115854
2211,513,7,126597,115855
2214,506,7,126603,115861
2216,504,8,126624,115861
2220,500,7,126643,115871
2222,499,7,126643,115874
2225,501,7,126650,115876
2227,504,7,126666,115876
2230,505,7,126673,115880
2232,503,7,126673,115886
2234,501,7,126683,115889
2237,500,7,126696,115891
2239,498,7,126696,115893
2242,498,7,126714,115903
2244,501,7,126726,115903
2247,504,7,126737,115903
2249,507,7,126737,115902
2251,505,7,126746,115907
2254,504,7,126760,115907
2256,503,7,126771,115912
2259,500,7,126771,115917
2262,500,7,126784,115917
2265,503,7,126790,115923
2267,510,7,126790,115925
2270,511,7,126806,115933
2272,510,7,126817,115933
2274,508,7,126823,115944
2277,506,7,126823,115939
2279,505,7,126837,115944
2282,505,7,126848,115944
2284,508,7,126864,115938
2287,513,7,126864,115950
2289,514,7,126870,115950
2291,514,7,126879,115957
2294,512,7,126879,115960
2296,510,7,126887,115959
2299,509,7,126894,115959
2301,509,7,126902,115969
2305,513,7,126902,115966
2307,517,7,126913,115970
2310,518,7,126922,115970
2312,517,7,126922,115983
2314,516,7,126932,115984
2317,515,7,126945,115984
2319,512,7,126945,115975
2322,513,7,126942,115979
2324,517,7,126952,115988
2327,520,7,126959,115988
2329,521,7,126972,115991
2331,519,7,126972,115992
2334,518,7,126971,115992
2336,517,7,126971,115998
2339,514,7,126978,115997
2341,514,7,126990,116002
2344,517,7,126987,116002
2347,520,7,126990,116009
2350,522,7,126999,116005
2352,521,7,127001,115998
2354,518,7,127012,116007
2357,517,7,126982,116008
2359,515,7,126982,115992
2362,514,7,126979,115989
2364,516,7,126952,115989
2367,519,7,126941,115981
2369,520,7,126899,115972
2371,520,7,126867,115950
2374,518,7,126838,115937
2376,515,7,126780,115915
2379,513,7,126682,115905
2381,511,7,126682,115858
2384,512,7,126625,115858
2386,517,7,126555,115837
2390,518,7,126520,115823
2392,517,7,126464,115809
2394,516,7,126400,115777
2397,514,7,126348,115758
2399,510,7,126299,115744
2402,509,7,126253,115731
2404,511,7,126221,115708
2407,513,7,126182,115703
2409,517,7,126156,115697
2411,516,7,126133,115685
2414,514,7,126090,115680
2416,512,7,126078,115668
2419,510,7,126062,115664
2421,509,7,126039,115657
2424,511,7,126019,115654
2426,518,7,126008,115648
2429,519,7,125995,115646
2432,519,7,125986,115638
2434,518,7,125974,115647
2437,517,7,125967,115641
2439,515,7,125966,115639
2442,514,7,125966,115633
2444,516,7,125969,115639
2447,520,7,125976,115645
2449,522,7,125967,115636
2451,521,7,125972,115641
2454,518,7,125981,115640
2456,516,7,125971,115641
2459,514,7,125988,115643
2461,513,7,125989,115653
2464,515,7,125999,115650
2466,520,7,125999,115655
2469,521,7,126020,115654
2471,520,7,126034,115655
2473,518,7,126044,115667
2477,516,7,126059,115672
2479,514,7,126062,115682
2482,512,7,126085,115681
2484,516,7,126092,115686
2487,519,7,126107,115699
2489,520,7,126115,115698
2491,519,7,126123,115700
2494,516,7,126131,115698
2496,515,7,126140,115708
2499,513,7,126162,115712
2501,512,7,126169,115707
2504,514,7,126176,115719
2506,519,7,126191,115721
2509,520,7,126201,115723
2511,519,7,126198,115727
2513,517,7,126215,115733
2516,516,7,126212,115741
2519,513,7,126232,115738
2522,513,7,126235,115739
2524,514,7,126246,115742
2527,518,7,126245,115740
2529,521,7,126252,115747
2531,519,7,126263,115744
2534,517,7,126269,115750
2536,515,7,126273,115757
2539,513,7,126280,115754
2541,513,7,126295,115759
2544,515,7,126298,115762
2546,518,7,126308,115763
2549,520,7,126320,115766
2551,519,7,126330,115779
2553,518,7,126341,115777
2556,517,7,126353,115786
2558,514,7,126368,115790
2562,514,7,126382,115788
2564,517,7,126406,115797
2567,520,7,126413,115807
2569,522,7,126425,115814
2571,521,7,126450,115816
2574,517,7,126461,115823
2576,516,7,126481,115826
2579,515,7,126481,115823
2581,514,7,126498,115831
2584,516,7,126516,115834
2586,521,7,126535,115843
2589,522,7,126535,115840
2591,520,7,126548,115837
2593,518,7,126551,115837
2596,515,7,126555,115857
2598,513,7,126565,115846
2601,512,7,126565,115855
2604,513,7,126579,115857
2607,516,7,126577,115857
2609,518,7,126594,115861
2611,517,7,126584,115850
2614,514,7,126596,115857
2616,513,7,126596,115860
2619,511,7,126588,115860
2621,509,7,126582,115859
2624,510,7,126582,115856
2626,512,7,126586,115859
2629,514,7,126586,115859
2631,512,7,126582,115856
2633,510,7,126581,115848
2636,509,7,126572,115853
2638,507,7,126572,115844
2641,506,7,126566,115854
2643,508,7,126573,115854
2647,511,7,126572,115857
2649,514,7,126563,115848
2651,513,7,126563,115845
2654,511,7,126554,115845
2656,510,7,126545,115845
2659,507,7,126544,115838
2661,506,7,126544,115839
2664,509,7,126542,115847
2666,512,7,126538,115847
2669,514,7,126548,115843
2671,512,7,126540,115844
2673,510,8,126540,115837
2676,509,7,126537,115842
2678,507,7,126529,115842
2681,505,7,126537,115845
2683,507,7,126537,115840
2686,508,7,126537,115844
2689,508,7,126534,115844
2691,504,7,126553,115841
2694,501,7,126550,115845
2696,501,7,126550,115844
2699,504,7,126555,115848
2701,508,7,126562,115848
2704,515,7,126566,115848
2706,534,7,126566,115853
2709,544,7,126566,115858
2711,550,7,126582,115858
2713,555,7,126601,115860
2716,570,7,126604,115867
2718,577,7,126607,115867
2721,594,7,126607,115870
2723,599,7,126621,115874
2726,593,7,126623,115874
2728,566,7,126623,115876
2731,541,7,126639,115889
2734,526,7,126657,115889
2736,514,7,126660,115883
2739,498,7,126669,115894
2741,494,7,126675,115894
2744,495,7,126675,115894
2746,498,7,126689,115904
2749,500,7,126707,115904
2751,498,7,126707,115914
2753,495,7,126720,115911
2756,494,7,126732,115911
2758,492,8,126747,115917
2761,490,7,126747,115926
2763,491,7,126761,115926
2766,497,7,126761,115930
2768,498,7,126736,115933
2770,498,7,126775,115933
2774,496,7,126775,115937
2776,496,7,126796,115945
2779,495,7,126797,115945
2781,493,7,126810,115947
2784,497,7,126810,115952
2786,500,7,126825,115957
2789,501,7,126828,115957
2791,500,7,126839,115953
2793,499,7,126841,115956
2796,497,7,126841,115958
2798,495,7,126851,115965
2801,496,7,126850,115965
2803,497,7,126869,115967
2806,501,7,126869,115961
2808,505,7,126872,115972
2810,505,7,126877,115972
2813,503,7,126874,115969
2816,502,7,126886,115976
2819,500,7,126889,115979
2821,498,7,126910,115979
2824,501,7,126913,115982
2826,504,7,126909,115980
2829,507,7,126909,115981
2831,505,7,126925,115987
2833,505,7,126921,115987
2836,504,7,126927,115992
2838,503,7,126935,115988
2841,502,7,126942,115992
2843,506,7,126949,115996
2846,508,7,126965,116002
2848,510,7,126970,116005
2850,510,7,126970,116006
2853,508,7,126976,116006
2855,506,7,126978,116016
2859,504,7,126991,116020
2861,503,7,127010,116016
2864,505,7,127008,116024
2866,508,7,127010,116023
2869,510,7,127012,116029
2871,510,7,127014,116025
2873,507,7,127016,116019
2876,505,7,127016,116025
2878,504,7,127032,116029
2881,502,7,127032,116028
2883,506,7,127020,116028
2886,509,7,127012,116021
2888,510,7,126999,116006
2890,509,7,126975,116012
2893,507,7,126950,115999
2895,506,7,126922,115985
2898,504,7,126885,115974
2900,501,7,126841,115955
2904,503,7,126807,115944
2906,506,7,126755,115918
2909,508,7,126710,115904
2911,506,7,126647,115879
2913,504,7,126593,115863
2916,503,7,126534,115845
2918,501,7,126480,115821
2921,499,7,126421,115797
2923,500,7,126362,115779
2926,503,7,126315,115763
2928,506,7,126269,115750
2930,505,7,126238,115738
2933,503,7,126208,115722
2935,502,7,126181,115715
2938,501,7,126148,115703
2940,500,7,126124,115697
2944,502,7,126093,115692
2946,506,7,126075,115687
2949,508,7,126066,115679
2951,508,7,126045,115678
2953,506,7,126028,115670
2956,506,7,126024,115669
2958,504,7,126011,115658
2961,503,7,125994,115666
2963,505,7,126001,115672
2966,509,7,125992,115662
2968,512,7,125993,115666
2970,511,7,125990,115660
2973,510,7,125988,115665
2975,509,7,125988,115665
2978,505,7,125976,115660
2980,504,7,125983,115667
2983,506,7,125995,115662
2985,509,7,126015,115674
2989,512,7,126002,115671
2991,511,7,126007,115671
2993,509,7,126026,115679
2996,508,7,126035,115683
2998,506,7,126049,115685
3001,504,7,126045,115683
3003,507,7,126057,115695
3006,509,7,126065,115686
3008,512,7,126077,115705
3010,510,7,126096,115702
3013,509,7,126110,115707
3015,508,7,126114,115710
3018,505,7,126120,115718
3020,504,7,126132,115714
3023,506,7,126137,115721
3025,509,7,126154,115723
3028,510,7,126164,115726
3031,509,7,126172,115728
3033,508,7,126180,115731
3036,507,7,126186,115726
3038,505,7,126185,115729
3041,504,7,126194,115738
3043,507,7,126203,115729
3046,509,7,126203,115739
3048,512,7,126214,115742
3050,512,7,126217,115742
3053,508,7,126235,115747
3055,506,7,126222,115738
3058,504,7,126232,115749
3060,503,7,126235,115750
3063,504,7,126242,115742
3065,510,7,126249,115753
3068,511,7,126249,115756
3070,510,7,126270,115752
3073,508,7,126273,115752
3076,505,7,126286,115767
3078,503,7,126288,115762
3081,502,7,126288,115765
3083,504,7,126312,115768
3086,507,7,126330,115768
3088,510,7,126350,115780
3090,508,7,126350,115786
3093,506,7,126368,115788
3095,505,7,126380,115788
3098,503,7,126395,115808
3100,502,7,126409,115799
3103,504,7,126409,115808
3105,508,7,126424,115809
3108,510,7,126438,115809
3110,509,7,126457,115817
3112,508,7,126457,115821
3116,506,7,126465,115819
3118,505,7,126472,115819
3121,504,7,126486,115829
3123,506,7,126488,115828
3126,508,7,126497,115835
3128,512,7,126497,115834
3130,510,7,126507,115831
3133,508,7,126499,115836
3135,507,7,126506,115836
3138,502,7,126490,115825
3140,501,7,126490,115826
3143,502,7,126500,115831
3145,504,7,126497,115831
3148,506,7,126503,115828
3150,503,7,126495,115832
3152,501,7,126495,115818
3155,498,7,126492,115827
3158,496,7,126492,115826
3161,495,7,126481,115824
3163,496,7,126467,115824
3166,498,7,126483,115818
3168,501,7,126483,115814
3170,499,7,126464,115814
3173,497,7,126453,115809
3175,496,7,126448,115809
3178,494,7,126448,115807
3180,493,7,126432,115807
3183,493,7,126431,115805
3185,498,7,126431,115801
3188,500,7,126426,115799
3190,500,7,126413,115799
3192,498,7,126419,115801
3195,496,7,126415,115795
3197,495,7,126409,115795
3201,494,7,126409,115792
3203,496,7,126405,115794
3206,499,7,126402,115794
3208,501,7,126402,115792
3210,500,7,126412,115787
3213,498,7,126404,115787
3215,497,7,126408,115792
3218,494,7,126407,115795
3220,492,7,126408,115795
3223,492,7,126408,115795
3225,492,7,126418,115799
3228,491,7,126422,115799
3230,487,7,126422,115804
3232,486,7,126429,115803
3235,488,7,126432,115803
3237,490,7,126444,115803
3240,500,7,126444,115808
3243,513,7,126448,115808
3246,523,7,126461,115808
3248,531,7,126478,115819
3250,543,7,126478,115822
3253,548,7,126492,115822
3255,558,7,126507,115836
3258,577,7,126507,115832
3260,587,7,126513,115836
3263,590,7,126529,115836
3265,583,7,126533,115841
3268,552,7,126533,115848
3270,528,7,126544,115846
3272,513,7,126539,115846
3275,498,7,126569,115848
3277,488,7,126573,115858
3280,481,7,126573,115860
3282,484,7,126593,115860
3286,486,7,126597,115863
3288,488,7,126606,115866
3290,487,8,126606,115868
3293,483,7,126610,115873
3295,482,7,126621,115873
3298,480,7,126626,115871
3300,478,7,126633,115871
3303,479,7,126636,115873
3305,484,7,126649,115872
3308,486,7,126660,115886
3310,484,7,126663,115888
3312,483,7,126663,115894
3315,482,7,126672,115894
3317,480,7,126688,115894
3320,479,7,126695,115898
3322,481,7,126698,115900
3325,484,7,126701,115894
3328,487,7,126708,115899
3330,484,7,126715,115899
3333,481,7,126719,115909
3335,480,7,126721,115909
3338,478,7,126737,115913
3340,475,7,126733,115911
3343,476,7,126742,115914
3345,480,7,126760,115913
3348,483,7,126766,115924
3350,484,7,126767,115922
3352,483,7,126775,115922
3355,482,7,126782,115931
3357,482,7,126783,115924
3360,481,7,126784,115924
3362,485,7,126797,115941
3365,488,7,126792,115941
3367,491,7,126798,115933
3369,492,7,126810,115940
3373,489,7,126822,115936
3375,488,7,126829,115948
3378,487,7,126825,115951
3380,485,7,126836,115947
3383,486,7,126843,115947
3385,490,7,126842,115951
3388,492,7,126852,115962
3390,492,7,126854,115950
3392,490,7,126857,115951
3395,487,7,126872,115954
3397,484,7,126874,115960
3400,483,7,126880,115957
3402,484,7,126883,115958
3405,487,7,126878,115964
3407,490,7,126883,115969
3409,490,7,126884,115974
3412,485,7,126876,115970
3415,484,7,126880,115967
3418,484,7,126871,115965
3420,482,7,126869,115960
3423,484,7,126846,115955
3425,489,7,126835,115942
3428,491,7,126799,115935
3430,491,7,126769,115916
3432,490,7,126724,115899
3435,489,7,126670,115885
3437,488,7,126626,115871
3440,486,7,126560,115845
3442,489,7,126505,115827
3445,492,7,126467,115801
3447,494,7,126397,115778
3449,494,7,126342,115757
3452,491,7,126285,115743
3454,490,7,126239,115732
3458,489,7,126201,115715
3460,487,7,126147,115693
3463,488,7,126107,115685
3465,493,7,126067,115671
3468,495,7,126047,115663
3470,495,7,126023,115658
3472,494,7,125989,115648
3475,493,7,125959,115643
3477,492,7,125935,115631
3480,490,7,125912,115629
3482,493,7,125897,115616
3485,495,7,125880,115613
3487,499,7,125866,115607
3489,499,7,125862,115603
3492,497,7,125858,115603
3494,496,7,125836,115592
3497,493,7,125834,115596
3500,493,7,125828,115592
3503,494,7,125825,115584
3505,498,7,125819,115590
3508,500,7,125817,115591
3510,500,7,125819,115588
3512,498,7,125824,115587
3515,497,7,125822,115581
3517,495,7,125828,115583
3520,492,7,125824,115583
3522,494,7,125837,115589
3525,497,7,125837,115586
3527,499,7,125837,115588
3529,499,7,125839,115588
3532,497,7,125852,115595
3534,496,7,125860,115584
3537,494,7,125859,115598
3539,492,7,125860,115591
3543,493,7,125873,115595
3545,499,7,125883,115603
3548,500,7,125883,115599
3550,500,7,125878,115600
3552,498,7,125891,115600
3555,494,7,125892,115604
3557,492,7,125900,115605
3560,491,7,125900,115604
3562,493,7,125901,115602
3565,496,7,125897,115602
3567,499,7,125913,115611
3569,498,7,125913,115608
3572,496,7,125917,115610
3574,495,7,125917,115610
3577,494,7,125921,115610
3579,492,7,125920,115607
3582,494,7,125920,115606
3585,498,7,125922,115609
3588,500,7,125933,115609
3590,499,7,125930,115609
3592,497,7,125930,115606
3595,496,7,125928,115607
3597,495,7,125928,115607
3600,494,7,125946,115612
3602,496,7,125937,115608
3605,498,7,125933,115607
3607,503,7,125933,115612
3609,502,7,125941,115611
3612,501,7,125950,115616
3614,500,7,125951,115616
3617,499,7,125959,115608
3619,498,7,125959,115607
3622,500,7,125962,115623
3624,504,7,125980,115623
3628,506,7,125986,115630
3630,506,7,125986,115624
3632,504,7,126000,115632
3635,503,7,126018,115643
3637,501,7,126018,115645
3640,500,7,126041,115643
3642,502,7,126049,115643
3645,504,7,126075,115654
3647,508,7,126075,115656
3649,506,7,126079,115661
3652,504,7,126101,115669
3654,503,7,126109,115669
3657,501,7,126109,115670
3659,501,7,126128,115670
3662,501,7,126134,115679
3664,507,7,126134,115677
3667,509,7,126144,115680
3670,509,7,126154,115680
3672,507,7,126167,115682
3675,504,7,126167,115679
3677,501,7,126166,115685
3680,501,7,126168,115685
3682,503,7,126174,115688
3685,508,7,126174,115682
3687,509,7,126172,115682
3689,509,7,126166,115688
3692,505,7,126166,115684
3694,503,7,126170,115685
3697,501,7,126162,115685
3699,499,7,126165,115683
3702,501,7,126165,115680
3704,503,7,126162,115677
3707,504,7,126156,115677
3709,502,7,126156,115674
3712,499,7,126160,115679
3715,498,7,126141,115680
3717,496,7,126141,115671
3720,495,7,126137,115664
3722,497,7,126145,115666
3725,499,7,126139,115666
3727,500,7,126130,115670
3729,499,7,126130,115661
3732,498,7,126120,115661
3734,497,7,126111,115668
3737,497,7,126111,115658
3739,495,7,126112,115661
3742,497,7,126123,115661
3744,499,7,126115,115653
3747,502,7,126115,115655
3749,502,7,126113,115655
3751,500,7,126113,115659
3755,498,7,126108,115659
3757,496,7,126113,115661
3760,495,7,126118,115651
3762,498,7,126109,115658
3765,500,7,126124,115658
3767,502,7,126128,115661
3769,502,7,126133,115662
3772,500,7,126133,115664
3774,498,7,126134,115669
3777,497,7,126149,115665
3779,495,7,126149,115668
3782,495,7,126145,115674
3784,495,7,126160,115674
3787,494,7,126168,115679
3789,492,7,126178,115690
3791,491,7,126176,115679
3794,491,7,126186,115686
3796,497,7,126193,115691
3800,503,7,126206,115692
3802,511,7,126218,115693
3805,523,7,126222,115700
3807,542,7,126243,115703
3809,549,7,126248,115704
3812,555,7,126248,115713
3814,565,7,126268,115710
3817,575,7,126270,115716
3819,589,7,126278,115714
3822,589,7,126287,115720
3824,581,7,126295,115724
3827,568,7,126299,115721
3829,547,7,126308,115723
3831,525,7,126314,115732
3834,500,7,126326,115738
3836,493,7,126341,115736
3840,489,7,126335,115744
3842,488,7,126355,115738
3845,490,7,126362,115739
3847,492,7,126370,115749
3849,491,7,126373,115752
3852,488,7,126382,115747
3854,487,7,126384,115755
3857,485,7,126392,115762
3859,482,7,126396,115761
3862,482,7,126399,115758
3864,488,7,126408,115766
3867,490,7,126421,115778
3869,491,7,126435,115764
3871,491,7,126432,115774
3874,490,7,126435,115781
3876,489,7,126455,115780
3879,488,7,126462,115782
3881,490,7,126476,115773
3885,495,7,126469,115780
3887,499,7,126488,115783
3889,500,7,126474,115791
3892,499,7,126487,115791
3894,498,7,126504,115789
3897,497,7,126512,115795
3899,496,7,126516,115793
3902,498,7,126520,115796
3904,501,7,126524,115799
3907,504,7,126530,115803
3909,504,7,126531,115801
3911,503,7,126544,115816
3914,502,7,126547,115802
3916,502,7,126560,115809
3919,499,7,126557,115812
3921,500,7,126567,115819
3924,504,7,126564,115816
3927,508,7,126570,115820
3929,507,7,126583,115818
3932,505,7,126586,115827
3934,504,7,126594,115823
3937,502,7,126595,115828
3939,501,7,126604,115832
3942,502,7,126614,115830
3944,505,7,126619,115833
3947,507,7,126623,115841
3949,507,7,126633,115844
3951,506,7,126642,115844
3954,505,7,126634,115843
3956,503,7,126639,115841
3959,501,7,126648,115843
3961,502,7,126650,115850
3964,504,7,126663,115850
3966,508,7,126654,115849
3969,508,7,126663,115854
3972,506,7,126654,115848
3974,505,7,126644,115842
3977,502,7,126630,115819
3979,502,7,126620,115829
3982,503,7,126602,115811
3984,507,7,126569,115810
3987,509,7,126533,115793
3989,509,7,126502,115777
3991,507,7,126443,115765
3994,506,7,126405,115746
3996,505,7,126346,115724
3999,503,7,126291,115712
4001,505,7,126230,115679
4004,507,7,126230,115663
4006,510,7,126120,115651
4008,511,7,126082,115651
4012,508,7,126046,115622
4014,507,7,126003,115608
4017,505,7,125963,115599
4019,503,7,125922,115590
4022,504,7,125886,115574
4024,510,7,125856,115562
4027,511,7,125856,115547
4029,511,7,125788,115543
4031,510,7,125770,115543
4034,508,7,125755,115532
4036,507,7,125737,115514
4039,505,7,125737,115520
4041,507,7,125702,115509
4044,510,7,125684,115509
4046,514,7,125671,115495
4048,514,7,125671,115498
4051,512,7,125658,115496
4054,511,7,125654,115496
4057,510,7,125653,115484
4059,508,7,125653,115481
4062,510,7,125653,115486
4064,513,7,125647,115479
4067,516,7,125649,115479
4069,516,7,125640,115482
4071,515,7,125640,115477
4074,514,7,125640,115485
4076,513,7,125636,115485
4079,512,7,125646,115477
4081,512,7,125639,115475
4084,514,7,125654,115484
4086,517,7,125654,115482
4088,517,7,125652,115481
4091,514,7,125656,115482
4093,514,7,125664,115482
4097,511,7,125672,115485
4099,510,7,125672,115481
4102,510,7,125678,115494
4104,513,7,125674,115494
4107,515,7,125679,115495
4109,516,7,125679,115483
4111,514,7,125679,115494
4114,512,7,125684,115493
4116,511,7,125684,115490
4119,509,7,125687,115484
4121,510,7,125686,115484
4124,512,7,125694,115491
4126,516,7,125694,115485
4128,515,7,125686,115490
4131,513,7,125697,115490
4133,512,7,125700,115496
4136,509,7,125700,115483
4139,508,7,125692,115483
4142,509,7,125707,115488
4144,513,7,125707,115494
4147,516,7,125701,115494
4149,515,7,125704,115494
4151,514,7,125707,115488
4154,512,7,125707,115489
4156,510,7,125709,115493
4159,509,7,125709,115493
4161,510,7,125724,115495
4164,515,7,125724,115494
4166,517,7,125716,115494
4168,518,7,125723,115499
4171,515,7,125723,115498
4173,513,7,125728,115506
4176,512,7,125741,115506
4178,510,7,125749,115503
4182,513,7,125749,115508
4184,517,7,125758,115509
4187,519,7,125766,115509
4189,518,7,125766,115523
4191,516,7,125792,115531
4194,515,7,125812,115531
4196,513,7,125812,115533
4199,512,7,125827,115536
4201,514,7,125835,115542
4204,517,7,125849,115542
4206,519,7,125878,115550
4208,518,7,125878,115564
4211,516,7,125896,115564
4213,515,7,125896,115565
4216,512,7,125908,115573
4218,511,7,125924,115577
4221,513,7,125927,115577
4224,515,7,125936,115582
4227,517,7,125948,115583
4229,518,7,125959,115588
4231,515,7,125968,115583
4234,514,7,125969,115585
4236,512,7,125969,115588
4239,510,7,125976,115586
4241,512,7,125980,115593
4244,515,7,125982,115593
4246,517,7,125979,115592
4248,518,7,125986,115588
4251,517,7,125986,115592
4253,515,7,125990,115595
4256,514,7,125983,115587
4258,513,7,125983,115588
4261,513,7,125983,115588
4263,519,7,125980,115587
4267,522,7,125981,115581
4269,522,7,125973,115589
4271,521,7,125974,115585
4274,520,7,125974,115584
4276,518,7,125964,115584
4279,517,7,125965,115580
4281,518,7,125965,115575
4284,520,7,125958,115574
4286,522,7,125951,115577
4288,523,7,125951,115574
4291,518,7,125945,115573
4293,516,7,125956,115572
4296,514,7,125936,115572
4298,512,7,125948,115566
4301,511,7,125948,115570
4303,515,7,125933,115565
4306,517,7,125942,115562
4308,516,7,125934,115567
4311,514,7,125932,115572
4314,511,7,125939,115567
4316,508,7,125933,115565
4319,507,7,125938,115570
4321,507,7,125950,115567
4324,510,7,125956,115576
4326,514,7,125959,115573
4328,514,7,125960,115570
4331,511,7,125962,115578
4333,510,7,125963,115580
4336,509,7,125972,115579
4338,507,7,125963,115585
4341,507,7,125967,115584
4343,512,7,125971,115585
4346,515,7,125987,115596
4348,515,7,126005,115594
4350,513,7,126012,115594
4354,511,7,126021,115597
4356,510,7,126035,115609
4359,508,7,126042,115610
4361,509,7,126046,115616
4364,512,7,126053,115619
4366,515,7,126061,115613
4368,515,7,126079,115618
4371,510,7,126080,115625
4373,506,7,126084,115631
4376,503,7,126106,115629
4378,498,7,126115,115642
4381,497,7,126129,115648
4383,504,7,126130,115641
4386,510,7,126141,115642
4388,517,7,126149,115652
4390,523,7,126165,115651
4393,530,7,126167,115657
4396,538,7,126177,115660
4399,545,7,126176,115664
4401,560,7,126202,115668
4404,572,7,126203,115670
4406,587,7,126217,115677
4408,598,7,126221,115675
4411,603,7,126228,115680
4413,593,7,126235,115687
4416,578,7,126249,115686
4418,553,7,126255,115693
4421,533,7,126258,115692
4423,516,7,126277,115702
4426,511,7,126286,115696
4428,506,7,126287,115699
4430,502,7,126294,115705
4433,498,7,126304,115710
4435,496,7,126321,115706
4439,492,7,126317,115716
4441,492,7,126329,115716
4444,493,7,126338,115721
4446,497,7,126345,115726
4448,496,7,126358,115731
4451,495,7,126366,115730
4453,493,7,126366,115715
4456,492,7,126372,115732
4458,491,7,126375,115725
4461,492,7,126383,115733
4463,495,7,126396,115733
4466,498,7,126398,115736
4468,499,7,126407,115742
4470,498,7,126412,115742
4473,497,7,126420,115750
4475,495,7,126431,115746
4478,494,7,126431,115753
4481,495,7,126437,115754
4484,498,7,126444,115754
4486,503,7,126462,115763
4488,502,7,126465,115766
4491,499,7,126468,115765
4493,498,7,126468,115768
4496,497,7,126485,115768
4498,496,7,126486,115772
4501,497,7,126486,115768
4503,501,7,126496,115773
4506,504,7,126502,115773
4508,504,7,126509,115776
4510,503,7,126515,115781
4513,500,7,126530,115786
4515,499,7,126530,115787
4518,497,7,126531,115790
4520,497,7,126541,115793
4524,500,7,126541,115794
4526,502,7,126555,115793
4528,503,7,126562,115793
4531,502,7,126572,115807
4533,501,7,126572,115802
4536,500,7,126584,115810
4538,500,7,126589,115810
4541,501,7,126600,115814
4543,505,7,126611,115813
4546,507,7,126603,115817
4548,509,7,126611,115812
4550,508,7,126615,115812
4553,505,7,126615,115825
4555,504,7,126615,115823
4558,503,7,126619,115821
4560,504,7,126612,115821
4563,506,7,126616,115818
4566,511,7,126602,115814
4568,511,7,126602,115807
4571,509,7,126558,115795
4573,509,7,126519,115795
4576,508,7,126494,115765
4578,507,7,126494,115754
4581,509,7,126445,115736
4583,512,7,126344,115736
4586,514,7,126294,115720
4588,515,7,126294,115676
4590,513,7,126237,115656
4593,512,7,126105,115656
4595,512,7,126065,115632
4598,510,7,126011,115615
4600,511,7,126011,115583
4603,514,7,125929,115569
4605,516,7,125887,115569
4608,517,7,125856,115565
4611,514,7,125824,115541
4613,513,7,125789,115541
4616,511,7,125789,115521
4618,510,7,125759,115512
4621,511,7,125712,115512
4623,515,7,125712,115495
4626,517,7,125703,115493
4628,517,7,125654,115493
4630,516,7,125645,115483
4633,513,7,125633,115468
4635,512,7,125622,115468
4638,511,7,125622,115470
4640,512,7,125613,115464
4643,515,7,125600,115464
4645,518,7,125600,115459
4647,518,7,125615,115461
4651,516,7,125603,115461
4653,514,7,125603,115464
4656,512,7,125601,115463
4658,511,7,125600,115459
4661,512,7,125599,115459
4663,514,7,125603,115462
4666,517,7,125603,115457
4668,516,7,125599,115457
4670,515,7,125611,115468
4673,513,7,125611,115472
4675,511,7,125619,115467
4678,510,8,125623,115467
4680,510,7,125632,115467
4683,514,7,125632,115475
4685,516,7,125638,115474
4687,516,7,125642,115474
4690,513,7,125647,115482
4692,512,7,125653,115483
4696,510,7,125653,115473
4698,508,7,125656,115473
4701,509,7,125656,115476
4703,511,7,125671,115486
4706,514,7,125671,115483
4708,516,7,125669,115484
4710,514,7,125673,115484
4713,512,7,125675,115490
4715,511,7,125685,115481
4718,509,7,125686,115479
4720,510,7,125692,115485
4723,513,7,125694,115485
4725,516,7,125692,115494
4727,516,7,125692,115486
4730,515,7,125702,115486
4732,513,7,125694,115487
4736,512,7,125709,115483
4738,508,7,125705,115488
4741,509,7,125707,115483
4743,511,7,125696,115490
4746,514,7,125701,115487
4748,516,7,125712,115485
4750,514,7,125712,115485
4753,513,7,125714,115485
4755,511,7,125709,115489
4758,510,7,125722,115494
4760,510,7,125732,115498
4763,511,7,125732,115497
4765,516,7,125741,115505
4767,516,7,125754,115509
4770,515,7,125752,115505
4772,513,7,125779,115519
4775,512,7,125795,115516
4777,510,7,125791,115524
4781,510,7,125818,115530
4783,515,7,125828,115536
4786,516,7,125839,115544
4788,516,7,125855,115545
4790,515,7,125865,115550
4793,512,7,125885,115550
4795,510,7,125894,115567
4798,509,7,125911,115574
4800,509,7,125925,115575
4803,512,7,125946,115585
4805,515,7,125950,115585
4807,515,7,125967,115588
4810,514,7,125975,115587
4812,512,7,125992,115596
4815,511,7,126005,115597
4817,508,7,126010,115601
4820,509,7,126018,115607
4823,512,7,126028,115610
4826,514,7,126045,115610
4828,515,7,126033,115618
4830,514,7,126039,115617
4833,513,7,126043,115609
4835,512,7,126052,115617
4838,509,7,126043,115621
4840,509,7,126046,115616
4843,512,7,126054,115620
4845,517,7,126055,115615
4847,517,7,126054,115623
4850,515,7,126054,115620
4852,513,7,126055,115617
4855,512,7,126047,115617
4857,511,7,126043,115623
4860,512,7,126054,115616
4862,514,7,126053,115614
4866,517,7,126046,115612
4868,520,7,126044,115616
4870,519,7,126042,115615
4873,518,7,126041,115611
4875,518,7,126045,115612
4878,516,7,126032,115608
4880,516,7,126034,115609
4883,517,7,126034,115606
4885,519,7,126034,115610
4887,518,7,126032,115602
4890,517,7,126028,115604
4892,514,7,126030,115606
4895,510,7,126023,115583
4897,508,7,126034,115605
4900,508,7,126032,115613
4902,510,7,126038,115611
4905,513,7,126035,115612
4908,512,7,126042,115614
4910,510,7,126041,115610
4913,508,7,126043,115612
4915,507,7,126050,115619
4918,505,7,126042,115618
4920,506,7,126062,115619
4923,509,7,126059,115622
4925,512,7,126069,115624
4927,513,7,126077,115633
4930,512,7,126093,115632
4932,511,7,126092,115626
4935,510,7,126095,115638
4937,508,7,126108,115639
4940,508,7,126117,115643
4942,512,7,126134,115651
4945,514,7,126134,115652
4947,515,7,126150,115657
4950,514,7,126158,115657
4953,511,7,126176,115666
4955,510,7,126187,115658
4958,509,7,126187,115675
4960,509,7,126208,115680
4963,512,7,126221,115680
4965,515,7,126233,115693
4967,513,7,126237,115694
4970,507,7,126258,115702
4972,503,7,126258,115707
4975,501,7,126279,115704
4977,501,7,126291,115708
4980,504,7,126291,115722
4982,513,7,126312,115713
4985,521,7,126321,115713
4987,537,7,126338,115725
4989,542,7,126347,115723
4993,553,7,126362,115734
4995,558,7,126362,115747
4998,567,7,126385,115746
5000,584,7,126389,115753
5003,598,7,126389,115742
5005,609,7,126412,115752
5007,607,8,126418,115752
5010,572,7,126435,115763
5012,553,7,126435,115765
5015,531,8,126445,115769
5017,518,7,126455,115769
5020,506,7,126470,115769
5022,500,7,126481,115772
5025,500,7,126474,115778
5027,501,7,126482,115781
5029,500,8,126493,115781
5032,498,7,126504,115782
5035,497,8,126504,115786
5038,495,7,126510,115795
5040,496,7,126531,115795
5043,498,7,126537,115799
5045,503,7,126537,115801
5047,503,7,126539,115802
5050,502,7,126555,115802
5052,501,7,126560,115808
5055,499,7,126570,115817
5057,497,7,126570,115819
5060,498,7,126584,115817
5062,501,7,126595,115817
5065,504,7,126596,115828
5067,506,7,126596,115824
5069,504,7,126607,115831
5072,503,7,126618,115831
5074,503,7,126632,115833
5078,502,7,126630,115834
5080,503,7,126630,115839
5083,506,7,126649,115843
5085,509,7,126659,115843
5087,511,7,126663,115847
5090,510,7,126663,115842
5092,509,7,126673,115850
5095,508,7,126685,115850
5097,507,7,126697,115860
5100,508,7,126697,115863
5102,510,7,126706,115863
5105,513,7,126717,115862
5107,515,7,126717,115870
5109,514,7,126721,115874
5112,513,7,126734,115874
5114,512,7,126739,115873
5117,510,7,126739,115881
5120,512,7,126747,115881
5123,514,7,126761,115881
5125,517,7,126768,115891
5127,518,7,126771,115892
5130,517,7,126771,115891
5132,515,7,126777,115894
5135,514,7,126788,115894
5137,512,7,126792,115900
5140,513,7,126792,115899
5142,516,7,126795,115902
5145,518,7,126800,115902
5147,518,7,126809,115907
5149,518,7,126812,115907
5152,516,7,126812,115908
5154,515,7,126820,115914
5157,514,7,126804,115914
5159,514,7,126805,115916
5163,516,7,126805,115907
5165,520,7,126801,115904
5167,519,7,126791,115904
5170,518,7,126768,115895
5172,517,7,126748,115887
5175,516,7,126717,115870
5177,513,7,126687,115857
5180,514,7,126593,115842
5182,516,7,126550,115830
5185,519,7,126550,115785
5187,519,7,126492,115768
5189,518,7,126428,115768
5192,516,7,126373,115745
5194,515,7,126316,115728
5197,513,7,126260,115700
5199,513,7,126206,115683
5202,515,7,126107,115665
5204,517,7,126064,115654
5207,518,7,126064,115626
5210,517,7,126034,115626
5212,515,7,125989,115605
5215,514,7,125964,115603
5217,511,7,125938,115590
5220,511,7,125906,115587
5222,513,7,125881,115573
5225,514,7,125865,115568
5227,516,7,125836,115564
5229,515,7,125826,115554
5232,513,7,125811,115557
5234,510,7,125801,115564
5237,507,7,125794,115554
5239,507,7,125793,115548
5242,508,7,125782,115545
5244,511,7,125785,115547
5246,510,7,125787,115543
5250,509,7,125775,115546
5252,507,7,125784,115550
5255,506,7,125791,115555
5257,504,7,125785,115548
5260,501,7,125788,115556
5262,498,7,125797,115557
5265,497,7,125809,115561
5267,496,7,125823,115560
5269,494,7,125828,115567
5272,492,7,125840,115569
5274,491,7,125850,115566
5277,490,7,125848,115577
5279,491,7,125852,115575
5282,495,7,125863,115585
5284,501,7,125870,115591
5286,502,7,125880,115592
5289,502,7,125894,115589
5292,501,7,125902,115593
5295,501,7,125930,115599
5297,500,7,125932,115596
5300,501,7,125936,115609
5302,505,7,125938,115604
5305,508,7,125948,115615
5307,509,7,125952,115612
5309,508,7,125956,115615
5312,507,7,125971,115617
5314,505,7,125979,115618
5317,503,7,125968,115619
5319,503,7,125978,115621
5322,505,7,125984,115615
5324,508,7,125987,115629
5326,508,7,125997,115620
5329,507,7,125992,115625
5331,505,7,126000,115630
5335,502,7,125998,115632
5337,501,7,126008,115636
5340,501,7,126011,115626
5342,503,7,126021,115625
5345,506,7,126005,115630
5347,507,7,126015,115634
5349,506,7,126021,115638
5352,505,7,126031,115630
5354,504,7,126039,115640
5357,502,7,126043,115647
5359,502,7,126051,115650
5362,503,7,126060,115649
5364,506,7,126071,115657
5366,507,7,126089,115659
5369,505,7,126098,115667
5371,503,7,126108,115643
5374,501,7,126124,115676
5377,499,7,126143,115685
5380,499,7,126159,115688
5382,501,7,126181,115695
5385,504,7,126190,115699
5387,505,7,126201,115705
5389,503,7,126210,115711
5392,502,7,126242,115714
5394,500,7,126244,115716
5397,497,7,126258,115736
5399,498,7,126276,115725
5402,501,7,126276,115730
5404,504,7,126300,115738
5406,505,7,126310,115738
5409,502,7,126321,115744
5411,501,7,126326,115743
5414,501,7,126334,115743
5416,499,7,126335,115745
5420,499,7,126345,115751
5422,504,7,126351,115754
5425,506,7,126351,115754
5427,507,7,126346,115763
5429,506,7,126360,115763
5432,505,7,126355,115756
5434,504,7,126355,115749
5437,503,7,126355,115748
5439,503,7,126356,115755
5442,505,7,126351,115755
5444,508,7,126350,115742
5446,508,7,126350,115742
5449,504,7,126339,115751
5451,501,7,126339,115745
5454,498,7,126340,115750
5456,495,7,126335,115746
5459,494,7,126335,115738
5462,496,7,126327,115737
5465,497,7,126330,115737
5467,497,7,126315,115739
5469,495,7,126315,115736
5472,493,7,126306,115730
5474,492,7,126313,115730
5477,490,7,126312,115730
5479,488,7,126309,115731
5482,489,7,126302,115744
5484,492,7,126302,115735
5486,493,7,126307,115735
5489,491,7,126290,115738
5491,490,7,126300,115738
5494,488,7,126307,115728
5496,486,7,126307,115732
5499,486,7,126298,115730
5501,487,7,126303,115730
5505,490,7,126307,115733
5507,492,7,126307,115736
5509,491,7,126307,115736
5512,489,7,126317,115738
5514,488,7,126323,115738
5517,486,7,126331,115752
5519,485,7,126331,115744
5522,489,7,126337,115748
5524,491,7,126351,115748
5526,492,7,126366,115756
5529,489,7,126366,115759
5531,486,7,126366,115763
5534,482,7,126387,115763
5536,478,7,126402,115767
5539,474,7,126407,115772
5541,477,7,126407,115779
5544,482,7,126412,115786
5547,487,7,126433,115786
5549,491,7,126449,115786
5552,501,7,126450,115791
5554,507,7,126465,115791
5557,520,7,126465,115804
5559,530,7,126483,115811
5562,539,7,126506,115811
5564,559,7,126506,115819
5566,574,7,126523,115819
5569,582,7,126529,115819
5571,586,7,126516,115820
5574,566,7,126550,115822
5576,550,7,126565,115822
5579,511,7,126565,115831
5581,494,7,126569,115837
5584,486,7,126589,115837
5586,475,7,126589,115844
5588,469,7,126600,115850
5592,468,7,126614,115850
5594,467,7,126621,115859
5597,464,7,126621,115861
5599,465,7,126632,115862
5602,467,7,126632,115862
5604,469,7,126657,115862
5606,470,7,126657,115867
5609,468,7,126660,115867
5611,466,7,126671,115870
5614,464,7,126671,115873
5616,463,7,126688,115877
5619,464,7,126681,115877
5621,465,7,126693,115877
5624,470,7,126693,115878
5626,471,7,126694,115880
5628,470,7,126696,115880
5632,469,7,126714,115885
5634,469,7,126721,115895
5637,466,7,126721,115893
5639,467,7,126727,115893
5642,469,7,126730,115898
5644,472,7,126742,115892
5646,474,7,126742,115898
5649,472,7,126745,115905
5651,471,7,126753,115905
5654,471,7,126766,115909
5656,470,7,126757,115904
5659,469,7,126773,115912
5661,473,7,126778,115913
5664,475,7,126788,115911
5666,476,7,126779,115916
5668,475,7,126779,115917
5671,474,7,126788,115917
5673,472,7,126795,115912
5677,471,7,126807,115920
5679,471,7,126804,115918
5682,473,7,126813,115925
5684,478,7,126836,115925
5686,478,7,126839,115927
5689,477,7,126830,115937
5691,476,7,126846,115934
5694,476,7,126855,115946
5696,473,7,126844,115934
5699,473,7,126851,115937
5701,475,7,126863,115944
5704,477,7,126870,115943
5706,478,7,126870,115945
5708,477,7,126877,115950
5711,476,7,126874,115959
5713,475,7,126885,115951
5716,474,7,126886,115947
5719,474,7,126882,115953
5722,476,7,126883,115952
5724,478,7,126891,115959
5726,480,7,126894,115957
5729,478,7,126882,115948
5731,476,7,126874,115945
5734,475,7,126863,115947
5736,474,7,126838,115941
5739,473,7,126829,115927
5741,476,7,126785,115907
5744,478,7,126753,115901
5746,479,7,126714,115886
5748,478,7,126675,115867
5751,475,7,126628,115844
5753,474,7,126570,115831
5756,473,7,126521,115814
5758,472,7,126458,115787
5762,473,7,126400,115764
5764,478,7,126338,115740
5766,478,7,126283,115729
5769,477,7,126243,115708
5771,475,7,126202,115693
5774,473,7,126158,115678
5776,470,7,126129,115673
5779,471,7,126089,115660
5781,472,7,126059,115647
5784,474,7,126035,115643
5786,476,7,125999,115631
5788,475,7,125975,115627
5791,474,7,125962,115619
5793,473,7,125941,115614
5796,471,7,125916,115608
5798,471,7,125901,115602
5801,474,7,125894,115601
5804,479,7,125877,115599
5806,480,7,125876,115588
5809,480,7,125873,115588
5811,479,7,125867,115586
5814,477,7,125865,115593
5816,475,7,125858,115597
5819,476,7,125861,115586
5821,477,7,125857,115587
5824,480,7,125850,115566
5826,480,7,125861,115588
5828,479,7,125868,115591
5831,478,7,125872,115590
5833,478,7,125874,115596
5836,476,7,125874,115598
5838,476,7,125882,115607
5841,477,7,125894,115593
5843,481,7,125894,115594
5846,481,7,125904,115595
5849,480,7,125913,115608
5851,478,7,125914,115608
5854,476,7,125923,115616
5856,475,7,125927,115613
5859,474,7,125936,115614
5861,477,7,125945,115612
5864,479,7,125939,115620
5866,481,7,125955,115617
5868,480,7,125956,115613
5871,479,7,125969,115615
5873,478,7,125959,115619
5876,476,7,125970,115617
5878,477,7,125975,115615
5881,479,7,125975,115622
5883,482,7,125977,115620
5885,483,7,125977,115620
5889,482,7,125983,115626
5891,481,7,125990,115622
5894,480,7,125996,115624
5896,478,7,125986,115622
5899,478,7,125994,115628
5901,482,7,126004,115624
5904,484,7,126004,115624
5906,485,7,126008,115633
5908,484,7,126009,115633
5911,482,7,126014,115625
5913,481,7,126013,115629
5916,480,7,126013,115628
5918,479,7,126025,115635
5921,481,7,126035,115635
5923,486,7,126045,115641
5925,486,7,126045,115637
5928,485,7,126050,115640
5931,483,7,126063,115640
5934,482,7,126079,115649
5936,479,7,126082,115657
5939,479,7,126082,115658
5941,481,7,126118,115673
5944,484,7,126125,115673
5946,486,7,126147,115676
5948,485,7,126147,115684
5951,483,7,126160,115687
5953,482,7,126176,115687
5956,481,7,126199,115691
5958,479,7,126209,115699
5961,481,7,126214,115707
5963,485,7,126214,115704
5965,486,7,126230,115723
5968,484,7,126251,115723
5970,483,7,126262,115723
5974,482,7,126284,115720
5976,481,7,126284,115734
5979,482,7,126284,115726
5981,484,7,126293,115726
5984,488,7,126300,115735
5986,491,7,126300,115732
5988,490,7,126309,115731
5991,489,7,126314,115728
5993,488,7,126314,115732
5996,487,7,126316,115740
5998,487,7,126318,115740
6001,489,7,126314,115739
6003,495,7,126314,115728
6005,495,7,126313,115728
6008,493,7,126309,115728
6010,492,7,126306,115724
6013,490,7,126307,115724
6016,488,7,126306,115724
6019,487,7,126303,115724
6021,489,7,126303,115725
6024,492,7,126303,115717
6026,491,7,126286,115720
6028,489,7,126286,115717
6031,487,7,126288,115717
6033,486,7,126280,115712
6036,484,7,126267,115717
6038,483,7,126267,115711
6041,485,7,126265,115712
6043,486,7,126269,115712
6045,487,7,126266,115716
6048,486,7,126266,115715
6050,484,7,126269,115707
6053,483,7,126258,115707
6055,482,7,126265,115706
6059,481,7,126265,115700
6061,483,7,126251,115700
6064,487,7,126251,115715
6066,488,7,126260,115710
6068,487,7,126265,115710
6071,486,7,126268,115711
6073,485,7,126261,115712
6076,484,7,126261,115710
6078,484,7,126271,115708
6081,487,7,126263,115708
6083,490,7,126280,115719
6085,492,7,126284,115726
6088,491,7,126284,115721
6090,489,7,126290,115723
6093,489,7,126304,115723
6095,487,7,126313,115725
6098,483,7,126313,115739
6100,482,7,126325,115738
6104,483,7,126324,115738
6106,484,7,126350,115744
6108,484,7,126361,115751
6111,488,7,126361,115753
6113,494,7,126374,115753
6116,500,7,126381,115756
6118,506,7,126391,115758
6121,516,7,126391,115763
6123,538,7,126399,115765
6125,545,7,126408,115765
6128,553,7,126416,115772
6130,562,7,126426,115775
6133,573,7,126439,115774
6135,586,7,126445,115785
6138,582,7,126472,115783
6140,572,7,126477,115792
6144,556,7,126477,115791
6146,522,7,126487,115791
6148,505,7,126492,115797
6151,493,7,126497,115805
6153,487,7,126508,115798
6156,481,7,126516,115797
6158,478,7,126527,115805
6161,479,7,126525,115805
6163,481,7,126537,115812
6165,482,7,126540,115816
6168,482,7,126552,115815
6170,479,7,126558,115825
6173,478,7,126557,115824
6175,477,7,126582,115822
6178,477,7,126587,115827
6180,481,7,126593,115831
6183,484,7,126606,115824
6185,486,7,126605,115827
6188,486,7,126616,115840
6191,485,7,126615,115839
6193,484,7,126618,115841
6196,483,7,126627,115841
6198,482,7,126645,115847
6201,485,7,126647,115847
6203,488,7,126658,115848
6205,492,7,126664,115851
6208,491,7,126667,115852
6210,491,7,126676,115858
6213,490,7,126673,115857
6215,489,7,126682,115864
6218,489,7,126688,115857
6220,492,7,126691,115865
6223,495,7,126697,115873
6225,497,7,126703,115867
6227,497,7,126713,115872
6231,496,7,126720,115869
6233,496,7,126722,115878
6236,495,7,126729,115875
6238,495,7,126739,115879
6241,498,7,126736,115881
6243,501,7,126741,115880
6245,503,7,126753,115884
6248,502,7,126751,115888
6250,501,7,126759,115889
6253,500,7,126773,115890
6255,498,7,126782,115895
6258,497,7,126792,115900
6260,501,7,126794,115893
6263,505,7,126794,115899
6265,507,7,126799,115903
6267,505,7,126809,115903
6270,503,7,126809,115906
6273,502,7,126804,115912
6276,500,7,126824,115912
6278,500,7,126829,115916
6281,501,7,126821,115913
6283,505,7,126828,115920
6285,508,7,126822,115912
6288,506,7,126816,115909
6290,504,7,126813,115912
6293,503,7,126806,115903
6295,501,7,126775,115896
6298,500,7,126761,115889
6300,503,7,126735,115878
6303,506,7,126710,115867
6305,507,7,126670,115851
6307,507,7,126623,115832
6310,506,7,126562,115818
6312,505,7,126514,115794
6316,503,7,126463,115780
6318,502,7,126402,115751
6321,506,7,126334,115730
6323,508,7,126292,115718
6325,510,7,126241,115676
6328,508,7,126196,115681
6330,507,7,126154,115661
6333,507,7,126121,115657
6335,505,7,126081,115645
6338,505,7,126050,115631
6340,509,7,126015,115619
6343,512,7,125992,115613
6345,513,7,125968,115603
6347,513,7,125936,115600
6350,511,7,125920,115595
6352,510,7,125908,115579
6355,509,7,125908,115578
6358,508,7,125867,115580
6361,510,7,125856,115580
6363,516,7,125865,115568
6365,518,7,125843,115556
6368,517,7,125835,115559
6370,516,7,125835,115557
6373,516,7,125833,115557
6375,514,7,125825,115551
6378,514,7,125825,115557
6380,517,7,125827,115557
6383,520,7,125824,115557
6385,521,7,125835,115561
6387,520,7,125823,115550
6390,517,7,125817,115550
6392,516,7,125817,115549
6395,513,7,125824,115552
6397,512,7,125824,115552
6401,513,7,125824,115562
6403,515,7,125838,115560
6405,516,7,125840,115560
6408,513,7,125849,115562
6410,511,7,125849,115553
6413,509,7,125848,115563
6415,508,7,125852,115563
6418,506,7,125862,115556
6420,508,7,125864,115560
6423,510,8,125864,115564
6425,512,7,125873,115563
6427,511,7,125871,115563
6430,508,7,125865,115565
6432,507,8,125865,115558
6435,505,7,125870,115563
6437,504,7,125875,115563
6440,505,7,125875,115559
6443,511,7,125887,115565
6445,511,7,125887,115564
6448,510,7,125882,115559
6450,509,7,125880,115559
6453,508,7,125869,115553
6455,505,7,125869,115556
6458,505,7,125877,115554
6460,506,7,125879,115554
6463,510,7,125886,115563
6465,513,7,125880,115552
6467,512,7,125880,115556
6470,510,7,125878,115558
6472,509,7,125878,115558
6475,508,7,125878,115571
6477,507,7,125878,115562
6480,510,7,125884,115559
6482,513,7,125880,115559
6484,514,7,125893,115560
6488,513,7,125896,115558
6490,512,7,125896,115558
6493,511,7,125896,115563
6495,509,7,125907,115572
6498,508,7,125915,115572
6500,511,7,125915,115574
6503,514,7,125931,115578
6505,515,7,125949,115578
6507,514,7,125965,115581
6510,511,7,125969,115596
6512,510,7,125990,115596
6515,507,7,125990,115602
6517,507,7,126002,115606
6520,508,7,126025,115606
6522,511,7,126025,115612
6524,511,7,126047,115629
6528,510,7,126070,115629
6530,508,7,126083,115624
6533,508,7,126083,115636
6535,507,7,126108,115636
6538,507,7,126108,115648
6540,510,7,126117,115647
6543,513,7,126134,115647
6545,516,8,126134,115648
6547,515,7,126150,115653
6550,514,7,126151,115657
6552,514,7,126151,115656
6555,512,7,126162,115662
6557,513,7,126154,115658
6560,516,7,126164,115658
6562,519,7,126173,115661
6564,523,7,126173,115657
6567,522,7,126174,115657
6569,520,7,126174,115665
6573,519,8,126182,115663
6575,518,7,126177,115657
6578,518,7,126175,115657
6580,520,7,126168,115663
6583,525,7,126168,115655
6585,526,7,126175,115655
6587,526,7,126175,115656
6590,522,7,126162,115659
6592,520,7,126160,115651
6595,518,7,126157,115646
6597,517,7,126153,115648
6600,519,7,126151,115648
6602,521,7,126152,115644
6604,523,7,126144,115641
6607,522,7,126147,115646
6609,518,7,126141,115644
6612,516,7,126140,115639
6615,515,7,126140,115644
6618,514,7,126135,115644
6620,517,7,126136,115636
6623,520,7,126147,115643
6625,522,7,126132,115645
6627,521,7,126131,115644
6630,519,7,126139,115639
6632,518,7,126138,115639
6635,517,7,126143,115641
6637,517,7,126145,115643
6640,518,7,126130,115646
6642,521,7,126141,115647
6644,524,7,126144,115645
6647,523,7,126138,115643
6649,522,7,126151,115642
6652,521,7,126150,115651
6654,520,7,126170,115652
6658,518,7,126167,115658
6660,521,7,126178,115652
6663,521,7,126183,115664
6665,520,7,126192,115665
6667,517,7,126190,115668
6670,512,7,126196,115672
6672,510,7,126210,115679
6675,511,7,126216,115674
6677,513,7,126222,115677
6680,522,7,126244,115689
6682,535,7,126261,115680
6684,547,7,126270,115690
6687,560,7,126267,115692
6689,564,7,126281,115697
6692,572,7,126284,115697
6694,579,7,126298,115707
6697,592,7,126294,115703
6700,609,7,126312,115714
6703,609,7,126319,115720
6705,600,7,126335,115711
6707,580,7,126338,115718
6710,556,7,126364,115728
6712,530,7,126363,115736
6715,517,7,126372,115731
6717,511,7,126377,115739
6720,509,7,126388,115738
6722,510,7,126383,115742
6724,512,7,126393,115745
6727,508,7,126402,115745
6729,506,7,126410,115747
6732,505,7,126432,115752
6734,503,7,126433,115757
6737,503,7,126448,115753
6739,506,7,126453,115760
6743,509,7,126461,115763
6745,511,7,126463,115764
6747,510,7,126480,115777
6750,509,7,126483,115766
6752,508,7,126479,115770
6755,508,7,126493,115773
6757,507,7,126505,115773
6760,509,7,126506,115781
6762,512,7,126524,115786
6764,515,7,126523,115782
6767,515,7,126527,115788
6769,514,7,126531,115794
6772,513,7,126544,115792
6774,512,7,126548,115793
6777,511,7,126557,115800
6779,515,7,126562,115796
6782,518,7,126574,115809
6785,520,7,126583,115807
6787,519,7,126590,115811
6790,517,7,126596,115809
6792,516,7,126602,115813
6795,516,7,126608,115814
6797,515,7,126617,115822
6800,516,7,126622,115821
6802,520,7,126631,115828
6804,522,7,126638,115834
6807,521,7,126642,115829
6809,519,7,126645,115830
6812,518,7,126650,115837
6814,517,7,126656,115826
6817,516,7,126660,115835
6819,518,7,126669,115828
6822,520,7,126669,115832
6824,524,7,126681,115841
6827,523,7,126692,115844
6830,522,7,126703,115845
6832,521,7,126704,115850
6835,519,7,126709,115858
6837,518,7,126716,115845
6840,520,7,126716,115848
6842,523,7,126718,115858
6844,525,7,126721,115858
6847,524,7,126729,115855
6849,522,7,126714,115847
6852,521,7,126717,115852
6854,520,7,126702,115843
6857,519,7,126693,115838
6859,522,7,126673,115831
6862,525,7,126673,115822
6864,527,7,126624,115815
6866,528,7,126591,115815
6870,524,7,126558,115792
6872,523,7,126506,115760
6875,522,7,126506,115747
6877,521,7,126404,115728
6880,522,7,126358,115728
6882,528,7,126306,115686
6884,529,7,126306,115680
6887,527,7,126197,115658
6889,526,7,126153,115658
6892,524,7,126126,115637
6894,521,7,126080,115621
6897,521,7,126080,115613
6899,523,7,126009,115613
6902,526,7,125980,115604
6904,528,7,125955,115578
6906,527,7,125955,115572
6909,525,7,125897,115561
6912,524,7,125874,115561
6915,523,7,125868,115555
6917,521,7,125847,115544
6920,522,7,125830,115544
6922,527,7,125830,115538
6924,528,7,125825,115529
6927,527,7,125802,115533
6929,526,7,125792,115533
6932,525,7,125785,115525
6934,524,7,125785,115527
6937,523,7,125787,115523
6939,524,7,125777,115523
6942,527,7,125772,115520
6944,530,7,125772,115520
6946,528,7,125775,115523
6949,525,7,125773,115518
6951,524,7,125773,115507
6955,523,7,125776,115510
6957,523,7,125779,115510
6960,524,7,125791,115515
6962,528,7,125791,115514
6964,529,7,125783,115514
6967,528,7,125790,115514
6969,527,7,125795,115513
6972,525,7,125795,115521
6974,524,8,125797,115521
6977,523,7,125811,115520
6979,525,7,125811,115520
6982,529,7,125795,115517
6984,530,7,125821,115517
6986,529,7,125817,115523
6989,526,7,125817,115520
6991,525,7,125818,115527
6994,524,7,125821,115527
6996,523,7,125830,115519
7000,525,7,125830,115525
7002,527,7,125829,115525
7004,529,7,125835,115530
7007,527,7,125835,115520
7009,525,7,125834,115515
7012,525,7,125839,115515
7014,524,7,125840,115525
7017,522,7,125840,115518
7019,525,7,125838,115523
7022,527,7,125837,115523
7024,529,7,125837,115528
7026,527,7,125842,115525
7029,526,7,125847,115525
7031,525,7,125847,115522
7034,522,7,125842,115520
7036,522,7,125846,115518
7040,524,7,125833,115518
7042,527,7,125856,115518
7044,529,7,125856,115527
7047,528,7,125843,115527
7049,526,7,125843,115529
7052,523,8,125847,115531
7054,521,7,125856,115532
7057,521,7,125862,115532
7059,522,7,125868,115537
7062,525,8,125879,115530
7064,527,7,125894,115541
7066,526,7,125899,115546
7069,525,7,125915,115558
7071,524,7,125915,115549
7074,520,7,125934,115560
7076,519,7,125940,115560
7079,522,7,125962,115567
7081,524,7,125972,115580
7084,526,7,125991,115582
7087,526,7,126010,115583
7089,523,7,126018,115594
7092,522,7,126046,115595
7094,521,8,126046,115606
7097,519,7,126048,115606
7099,520,7,126065,115606
7102,523,7,126087,115613
7104,524,7,126092,115624
7106,524,7,126102,115626
7109,522,7,126110,115626
7111,520,7,126121,115619
7114,519,7,126120,115625
7116,517,7,126135,115629
7119,517,7,126133,115633
7121,523,7,126137,115629
7123,524,7,126160,115635
7127,524,7,126147,115637
7129,524,7,126159,115641
7132,523,7,126164,115642
7134,522,7,126163,115636
7137,521,7,126164,115640
7139,524,7,126164,115639
7142,527,7,126157,115639
7144,529,7,126158,115630
7146,529,7,126157,115635
7149,528,7,126153,115631
7151,526,7,126147,115637
7154,524,7,126143,115629
7156,522,7,126151,115634
7159,522,7,126162,115636
7161,525,7,126156,115636
7163,527,7,126147,115631
7166,525,7,126152,115632
7169,522,7,126146,115624
7172,520,7,126148,115626
7174,518,7,126143,115628
7177,515,7,126142,115635
7179,517,7,126141,115623
7182,519,7,126136,115628
7184,520,7,126140,115624
7186,518,7,126144,115633
7189,515,7,126143,115626
7191,513,7,126145,115627
7194,512,7,126137,115631
7196,511,7,126141,115626
7199,512,7,126143,115637
7201,515,7,126141,115633
7203,518,7,126142,115634
7206,517,7,126148,115632
7208,516,7,126153,115634
7212,514,7,126161,115636
7214,513,7,126163,115639
7217,511,7,126170,115639
7219,514,7,126183,115644
7222,517,7,126184,115646
7224,519,7,126191,115654
7226,519,7,126212,115656
7229,517,7,126209,115660
7231,515,7,126218,115667
7234,513,7,126231,115672
7236,512,7,126250,115676
7239,513,7,126255,115679
7241,517,7,126263,115677
7243,517,7,126268,115687
7246,511,7,126269,115690
7248,508,7,126287,115698
7251,506,7,126296,115695
7254,506,7,126301,115704
7257,508,7,126323,115699
7259,520,7,126321,115707
7262,530,7,126347,115716
7264,540,7,126358,115722
7266,548,7,126364,115723
7269,555,7,126378,115733
7271,565,7,126386,115730
7274,571,7,126397,115734
7276,583,7,126412,115734
7279,600,7,126414,115742
7281,607,7,126433,115752
7283,604,7,126433,115747
7286,573,7,126442,115755
7288,552,7,126458,115752
7291,537,7,126462,115760
7293,519,7,126476,115764
7297,510,7,126489,115768
7299,504,7,126506,115773
7302,506,7,126512,115770
7304,507,7,126515,115775
7306,507,7,126522,115775
7309,502,7,126527,115776
7311,501,7,126546,115773
7314,499,7,126546,115784
7316,497,7,126554,115784
7319,498,7,126565,115784
7321,503,7,126578,115801
7323,505,7,126583,115794
7326,505,7,126584,115801
7328,504,7,126584,115803
7331,503,7,126606,115798
7333,502,7,126605,115806
7336,502,7,126605,115802
7339,504,7,126616,115811
7342,507,7,126626,115811
7344,511,7,126646,115816
7346,510,7,126645,115820
7349,508,7,126648,115822
7351,507,7,126648,115822
7354,505,7,126663,115831
7356,505,8,126669,115824
7359,507,7,126669,115827
7361,511,7,126693,115832
7363,513,7,126688,115832
7366,512,7,126714,115849
7368,511,7,126714,115851
7371,510,7,126718,115846
7373,509,7,126723,115846
7376,508,7,126740,115848
7378,509,7,126743,115847
7382,512,8,126734,115861
7384,516,7,126756,115862
7386,516,7,126764,115862
7389,514,7,126775,115860
7391,513,8,126775,115868
7394,512,7,126786,115866
7396,511,7,126780,115866
7399,511,7,126797,115868
7401,517,7,126797,115880
7403,519,7,126803,115882
7406,519,8,126814,115882
7408,517,7,126818,115883
7411,516,7,126824,115889
7413,514,7,126824,115893
7416,513,7,126832,115899
7418,515,7,126834,115899
7421,518,7,126845,115897
7424,521,8,126845,115891
7426,519,7,126849,115902
7429,518,7,126842,115902
7431,516,7,126845,115902
7434,515,7,126845,115909
7436,513,7,126845,115888
7439,515,7,126809,115882
7441,518,7,126792,115882
7443,520,7,126766,115869
7446,520,7,126720,115842
7448,519,7,126683,115842
7451,517,7,126683,115810
7453,515,7,126643,115800
7456,514,7,126541,115800
7458,516,7,126541,115760
7461,519,7,126504,115726
7463,520,7,126364,115726
7465,520,7,126316,115717
7469,518,7,126316,115673
7471,517,7,126269,115663
7474,516,7,126178,115663
7476,515,7,126154,115647
7479,518,7,126154,115628
7481,520,7,126075,115628
7483,522,7,126051,115619
7486,520,7,126051,115604
7488,517,7,126029,115589
7491,517,7,125978,115589
7493,516,7,125958,115595
7496,514,7,125958,115575
7498,517,7,125945,115567
7501,520,7,125927,115567
7503,522,7,125911,115564
7505,521,7,125904,115568
7508,519,7,125904,115560
7511,517,7,125892,115557
7514,516,7,125877,115557
7516,515,7,125878,115561
7519,515,7,125878,115549
7521,521,7,125884,115555
7523,522,7,125878,115555
7526,521,7,125874,115556
7528,519,7,125874,115556
7531,515,7,125882,115558
7533,513,7,125887,115558
7536,512,8,125897,115557
7538,513,7,125894,115558
7541,515,7,125894,115567
7543,520,7,125915,115562
7545,520,8,125914,115562
7548,518,7,125917,115570
7550,517,7,125922,115575
7554,517,7,125933,115571
7556,515,7,125939,115568
7559,516,7,125960,115576
7561,519,7,125964,115583
7563,521,7,125964,115588
7566,522,7,125973,115588
7568,519,7,125971,115584
7571,517,7,125985,115591
7573,515,7,126000,115588
7576,514,7,125999,115585
7578,515,7,125994,115598
7581,519,7,126001,115593
7583,522,7,126006,115597
7585,522,7,126004,115590
7588,520,7,126007,115593
7590,518,7,126011,115586
7593,517,7,126019,115599
7596,515,7,126025,115601
7599,516,7,126026,115601
7601,519,7,126031,115596
7603,520,7,126030,115597
7606,521,7,126023,115604
7608,520,7,126028,115599
7611,519,7,126022,115602
7613,516,7,126027,115602
7616,515,7,126031,115603
7618,517,7,126045,115604
7621,519,7,126043,115601
7623,524,7,126050,115608
7625,523,7,126062,115609
7628,521,7,126058,115611
7630,521,7,126061,115614
7633,519,7,126066,115609
7635,518,7,126069,115612
7639,518,7,126081,115626
7641,523,7,126094,115633
7643,524,7,126101,115638
7646,524,7,126123,115641
7648,522,7,126134,115647
7651,520,7,126151,115644
7653,518,7,126168,115656
7656,518,7,126175,115658
7658,519,7,126195,115666
7661,522,7,126212,115671
7663,525,7,126223,115678
7665,524,7,126228,115685
7668,522,7,126256,115683
7670,521,7,126271,115690
7673,519,7,126279,115699
7675,518,7,126297,115701
7678,519,7,126298,115704
7681,524,7,126315,115706
7683,526,7,126327,115709
7686,526,7,126333,115716
7688,524,7,126352,115716
7691,523,7,126350,115725
7693,521,7,126364,115727
7696,520,7,126367,115719
7698,521,7,126376,115724
7701,524,7,126377,115713
7703,528,7,126379,115730
7705,528,7,126387,115730
7708,527,7,126387,115727
7710,526,7,126398,115734
7713,525,7,126384,115735
7715,525,7,126392,115735
7718,526,7,126384,115727
7720,529,7,126395,115729
7723,531,7,126396,115730
7726,530,7,126397,115735
7728,529,7,126388,115733
7731,528,7,126397,115734
7733,527,7,126399,115735
7736,526,7,126402,115735
7738,527,8,126396,115737
7741,529,7,126394,115738
7743,531,7,126395,115731
7745,529,7,126389,115727
7748,527,7,126393,115728
7750,524,7,126393,115732
7753,521,7,126391,115732
7755,519,7,126388,115737
7758,520,7,126388,115738
7760,522,7,126399,115737
7762,523,7,126404,115737
7766,521,7,126405,115736
7768,519,7,126393,115728
7771,517,7,126397,115726
7773,516,7,126399,115730
7776,514,7,126404,115735
7778,516,7,126416,115740
7781,518,7,126416,115735
7783,520,7,126418,115744
7785,521,7,126419,115744
7788,517,7,126427,115744
7790,516,7,126432,115747
7793,515,7,126432,115750
7795,513,7,126440,115752
7798,514,7,126454,115752
7800,520,7,126461,115761
7802,521,7,126470,115763
7805,520,7,126480,115772
7808,519,7,126480,115779
7811,517,7,126492,115776
7813,515,7,126505,115775
7816,514,8,126505,115779
7818,515,7,126536,115790
7821,517,7,126542,115790
7823,518,7,126551,115802
7825,515,7,126551,115800
7828,510,7,126573,115799
7830,507,7,126582,115799
7833,506,7,126596,115809
7835,506,7,126608,115810
7838,508,7,126610,115816
7840,522,7,126610,115823
7842,532,7,126624,115821
7845,540,7,126643,115830
7847,545,7,126663,115830
7851,557,7,126665,115837
7853,562,7,126665,115838
7856,571,7,126679,115843
7858,581,7,126695,115843
7861,595,7,126706,115847
7863,609,7,126713,115855
7865,601,7,126713,115858
7868,578,7,126735,115860
7870,558,7,126746,115860
7873,537,7,126758,115873
7875,511,7,126758,115869
7878,503,7,126756,115870
7880,501,8,126774,115870
7882,501,8,126794,115887
7885,500,7,126794,115881
7887,499,7,126795,115893
7890,499,7,126813,115893
7892,498,7,126824,115899
7896,496,7,126832,115901
7898,496,7,126832,115900
7901,499,7,126846,115903
7903,500,7,126847,115903
7905,500,7,126869,115902
7908,498,7,126868,115909
7910,497,7,126869,115909
7913,495,7,126869,115916
7915,495,7,126879,115921
7918,496,7,126894,115921
7920,501,7,126894,115924
7922,503,7,126907,115926
7925,503,7,126913,115926
7927,501,7,126892,115928
7930,499,7,126922,115940
7932,498,7,126934,115940
7936,497,7,126934,115935
7938,500,7,126934,115944
7941,504,7,126952,115944
7943,507,7,126952,115948
7945,506,7,126960,115959
7948,506,7,126967,115959
7950,504,7,126973,115958
7953,503,7,126973,115959
7955,502,7,126975,115962
7958,504,7,126981,115962
7960,506,7,127005,115967
7962,509,7,127005,115972
7965,509,7,127007,115972
7967,508,7,127013,115976
7970,507,7,127013,115974
7972,506,7,127011,115978
7975,505,7,127024,115978
7977,506,7,127039,115985
7981,511,7,127039,115984
7983,513,7,127047,115993
7985,512,7,127054,115993
7988,510,7,127065,116001
7990,509,7,127073,116004
7993,507,7,127073,116002
7995,506,7,127076,116002
7998,508,7,127082,116004
8000,511,7,127090,116008
8002,514,7,127090,116011
8005,513,7,127098,116006
8007,512,7,127092,116006
8010,511,7,127104,116013
8012,510,7,127102,116012
8015,509,7,127101,116011
8017,510,7,127105,116015
8020,512,7,127091,116016
8023,515,7,127083,116015
8025,515,7,127083,115996
8028,514,7,127056,115996
8030,512,7,127033,115984
8033,510,7,127010,115973
8035,509,7,126969,115960
8038,509,7,126920,115935
8040,513,7,126889,115926
8042,515,7,126838,115901
8045,515,7,126777,115891
8047,514,7,126720,115861
8050,512,7,126670,115854
8052,509,7,126615,115834
8055,508,7,126568,115808
8057,509,7,126520,115788
8060,512,7,126464,115773
8062,516,7,126431,115754
8065,515,7,126383,115741
8068,513,7,126351,115735
8070,511,7,126319,115719
8073,510,7,126298,115716
8075,508,7,126268,115705
8078,509,7,126234,115697
8080,512,7,126225,115687
8082,514,7,126216,115685
8085,514,7,126195,115680
8087,513,7,126184,115681
8090,512,7,126170,115688
8092,512,7,126169,115673
8095,510,7,126157,115668
8097,512,7,126138,115671
8100,515,7,126141,115673
8102,517,7,126143,115674
8104,518,7,126145,115673
8108,516,7,126148,115675
8110,515,7,126158,115679
8113,514,7,126155,115677
8115,512,7,126160,115676
8118,512,7,126166,115675
8120,518,7,126164,115682
8122,520,7,126178,115687
8125,519,7,126184,115685
8127,518,7,126196,115693
8130,516,7,126201,115697
8132,512,7,126218,115701
8135,511,7,126220,115708
8137,512,7,126237,115701
8140,514,7,126245,115709
8142,517,7,126251,115716
8144,516,7,126259,115718
8147,515,7,126279,115727
8150,513,7,126295,115733
8153,511,7,126293,115728
8155,510,7,126321,115737
8158,510,7,126315,115745
8160,514,7,126329,115751
8162,516,7,126336,115739
8165,515,7,126345,115744
8167,514,7,126348,115751
8170,511,7,126368,115758
8172,509,7,126369,115767
8175,508,7,126383,115765
8177,507,7,126392,115769
8180,510,7,126395,115762
8182,514,7,126396,115767
8184,513,7,126404,115772
8187,512,7,126407,115772
8189,511,7,126415,115781
8193,509,7,126424,115782
8195,507,7,126422,115780
8198,508,7,126430,115778
8200,512,7,126429,115781
8202,514,7,126446,115782
8205,514,7,126445,115790
8207,513,7,126441,115788
8210,511,7,126449,115794
8212,510,7,126460,115790
8215,509,7,126482,115799
8217,509,7,126479,115802
8220,511,7,126489,115805
8222,515,7,126508,115810
8224,514,7,126514,115811
8227,513,7,126532,115811
8229,512,7,126537,115813
8232,510,7,126553,115838
8235,510,7,126569,115832
8238,511,7,126569,115837
8240,514,7,126598,115842
8242,517,7,126615,115842
8245,517,7,126631,115854
8247,516,7,126646,115854
8250,514,7,126666,115862
8252,513,7,126671,115864
8255,511,7,126682,115874
8257,512,7,126700,115871
8260,515,7,126700,115878
8262,518,7,126722,115884
8264,518,7,126734,115884
8267,515,7,126745,115889
8269,514,7,126753,115890
8272,513,7,126753,115894
8274,512,7,126768,115898
8278,513,7,126766,115898
8280,517,7,126780,115901
8282,518,7,126780,115901
8285,518,7,126782,115910
8287,517,7,126784,115910
8290,516,7,126807,115911
8292,513,7,126799,115906
8295,512,7,126799,115907
8297,512,7,126794,115904
8300,514,7,126787,115904
8302,517,7,126801,115910
8304,515,7,126801,115911
8307,513,7,126797,115910
8309,511,7,126793,115910
8312,509,7,126792,115909
8314,505,7,126793,115907
8317,504,7,126791,115911
8320,506,7,126791,115913
8322,507,7,126791,115899
8325,505,7,126786,115907
8327,504,7,126778,115907
8330,501,7,126786,115905
8332,500,7,126786,115903
8335,498,7,126782,115900
8337,498,7,126773,115900
8340,500,7,126775,115906
8342,503,7,126775,115902
8344,503,7,126775,115903
8347,501,7,126777,115911
8349,500,7,126777,115908
8352,498,7,126784,115905
8354,497,7,126784,115905
8357,496,7,126790,115908
8359,499,7,126790,115905
8361,501,7,126786,115914
8365,500,7,126798,115913
8367,499,7,126800,115913
8370,498,7,126800,115914
8372,497,7,126812,115914
8375,496,7,126819,115924
8377,496,7,126819,115928
8380,499,7,126837,115929
8382,500,7,126851,115929
8384,499,7,126869,115931
8387,493,7,126874,115940
8389,490,7,126874,115940
8392,486,7,126874,115947
8394,487,7,126883,115951
8397,492,7,126896,115951
8399,504,7,126896,115953
8401,515,7,126921,115965
8404,522,7,126934,115965
8407,527,7,126938,115957
8410,540,7,126938,115972
8412,548,7,126957,115968
8415,555,7,126962,115968
8417,565,7,126962,115974
8420,588,7,126962,115986
8422,595,7,126984,115986
8424,595,7,126990,115987
8427,565,7,126990,115988
8429,538,7,126998,115989
8432,520,8,127014,115989
8434,503,7,127017,116003
8437,487,7,127017,116009
8439,485,7,127028,116006
8441,486,7,127037,116006
8444,486,7,127058,116011
8446,485,7,127055,116016
8450,484,7,127055,116013
8452,482,7,127063,116025
8455,481,7,127073,116025
8457,481,7,127075,116024
8460,483,7,127075,116028
8462,487,7,127089,116034
8464,487,7,127098,116034
8467,485,7,127095,116030
8469,484,7,127094,116035
8472,483,7,127108,116030
8474,481,7,127124,116039
8477,483,7,127129,116042
8479,486,7,127132,116048
8481,488,7,127132,116049
8484,489,7,127136,116045
8486,489,7,127149,116045
8489,488,7,127144,116047
8492,488,7,127155,116055
8495,487,7,127159,116052
8497,487,7,127156,116048
8500,490,7,127175,116055
8502,491,7,127175,116062
8504,493,7,127182,116062
8507,492,7,127170,116063
8509,491,7,127182,116065
8512,491,7,127200,116069
8514,490,7,127206,116071
8517,491,7,127208,116072
8519,493,7,127209,116078
8521,495,7,127217,116078
8524,496,7,127222,116080
8526,494,7,127217,116080
8529,493,7,127225,116084
8531,493,7,127237,116084
8535,491,7,127246,116091
8537,492,7,127250,116087
8540,494,7,127255,116101
8542,496,7,127259,116094
8544,497,7,127263,116098
8547,496,7,127264,116095
8549,496,7,127269,116103
8552,496,7,127272,116103
8554,496,7,127280,116095
8557,497,7,127283,116099
8559,500,7,127294,116103
8561,503,7,127298,116107
8564,504,7,127305,116113
8566,503,7,127304,116114
8569,503,7,127298,116108
8571,503,7,127301,116114
8574,502,7,127296,116109
8577,502,7,127304,116114
8580,504,7,127287,116112
8582,507,7,127286,116105
8584,507,7,127277,116099
8587,505,7,127267,116085
8589,504,7,127251,116086
8592,503,7,127218,116067
8594,502,7,127185,116064
8597,501,7,127142,116049
8599,504,7,127094,116033
8601,507,7,127058,116022
8604,507,7,127009,115995
8606,506,7,126966,115985
8609,505,7,126914,115963
8611,504,7,126866,115947
8614,502,7,126814,115929
8616,504,7,126772,115910
8620,506,7,126713,115891
8622,508,7,126671,115869
8624,509,7,126627,115860
8627,507,7,126568,115847
8629,505,7,126540,115832
8632,504,7,126510,115823
8634,503,7,126485,115807
8637,502,7,126463,115807
8639,504,7,126438,115798
8641,507,7,126422,115790
8644,508,7,126399,115785
8646,507,7,126393,115790
8649,507,7,126377,115781
8651,506,7,126366,115769
8654,504,7,126359,115769
8656,506,7,126349,115774
8659,509,7,126348,115771
8662,511,7,126351,115773
8664,512,7,126345,115772
8667,510,7,126339,115770
8669,508,7,126344,115772
8672,507,7,126351,115776
8674,506,7,126347,115779
8677,507,7,126350,115779
8679,512,7,126360,115786
8681,514,7,126372,115786
8684,514,7,126367,115784
8686,511,7,126379,115789
8689,509,7,126390,115798
8691,507,7,126405,115792
8694,506,7,126411,115805
8696,506,7,126418,115807
8699,508,7,126429,115808
8701,512,7,126455,115816
8704,511,7,126452,115814
8707,509,7,126477,115826
8709,508,7,126484,115823
8712,506,7,126496,115831
8714,506,7,126497,115828
8717,506,7,126497,115831
8719,509,7,126515,115844
8721,511,7,126532,115844
8724,511,7,126548,115852
8726,510,7,126557,115850
8729,508,7,126569,115850
8731,507,7,126567,115850
8734,506,7,126571,115861
8736,506,7,126586,115861
8739,508,7,126586,115859
8741,512,7,126596,115864
8743,512,7,126601,115864
8747,509,7,126610,115873
8749,509,7,126613,115873
8752,507,7,126613,115867
8754,506,7,126627,115878
8757,506,7,126631,115878
8759,511,7,126618,115872
8761,513,7,126618,115879
8764,513,7,126629,115878
8766,512,7,126636,115878
8769,511,7,126652,115887
8771,508,7,126657,115881
8774,507,7,126657,115886
8776,507,7,126674,115892
8779,510,7,126686,115892
8781,514,7,126697,115901
8783,513,7,126697,115900
8786,512,7,126717,115907
8788,512,7,126724,115907
8792,511,7,126746,115910
8794,511,7,126759,115923
8797,511,7,126774,115932
8799,517,7,126774,115932
8801,519,7,126790,115939
8804,520,7,126808,115936
8806,520,7,126830,115936
8809,519,7,126853,115954
8811,518,7,126853,115961
8814,517,7,126868,115968
8816,519,7,126892,115968
8819,521,7,126898,115974
8821,525,7,126898,115970
8823,525,7,126911,115977
8826,524,7,126932,115976
8828,523,7,126932,115987
8832,523,7,126933,115985
8834,523,7,126952,115985
8837,522,7,126971,115989
8839,526,7,126971,115989
8841,527,7,126968,115993
8844,526,7,126979,115993
8846,524,7,126987,115997
8849,521,7,126987,115994
8851,520,7,126975,115994
8854,518,7,126987,115993
8856,517,7,126987,115998
8859,519,7,126984,116000
8861,520,7,126983,116000
8863,520,7,126990,116005
8866,516,7,126990,115989
8868,514,7,126991,115993
8871,512,7,126979,115993
8873,510,7,126983,115999
8877,511,7,126983,115994
8879,512,7,126973,115994
8881,514,7,126976,115993
8884,514,7,126976,115991
8886,513,7,126977,115985
8889,512,7,126963,115985
8891,511,7,126960,115987
8894,510,7,126960,115981
8896,511,7,126959,115987
8899,513,7,126962,115987
8901,514,7,126962,115991
8903,513,7,126957,115993
8906,512,7,126967,115993
8908,511,7,126967,115986
8911,510,7,126967,115992
8913,509,7,126968,115988
8916,510,7,126961,115988
8919,512,7,126965,115994
8921,515,7,126965,116000
8924,515,7,126970,116000
8926,512,7,126970,115996
8929,505,7,126977,116002
8931,500,7,126982,116002
8934,497,7,126988,116002
8936,497,7,126998,116006
8939,501,7,126999,116012
8941,506,7,127003,116003
8943,518,7,127020,116013
8946,523,7,127026,116014
8948,530,7,127026,116017
8951,545,7,127038,116020
8953,552,7,127037,116025
8956,560,7,127045,116025
8958,571,7,127056,116033
8961,586,7,127061,116033
8964,600,7,127078,116028
8966,613,7,127074,116033
8969,606,7,127091,116035
8971,588,7,127091,116045
8974,570,7,127101,116045
8976,525,7,127102,116040
8979,512,7,127119,116047
8981,504,7,127118,116056
8983,498,7,127131,116055
8986,493,7,127135,116058
8988,490,7,127145,116064
8991,489,7,127150,116062
8993,487,7,127158,116065
8996,486,7,127155,116072
8998,487,7,127169,116071
9000,490,7,127177,116073
9004,490,7,127179,116079
9006,489,7,127203,116083
9009,488,7,127185,116085
9011,487,7,127206,116082
9014,486,7,127212,116080
9016,487,7,127218,116089
9019,490,7,127228,116095
9021,493,7,127230,116097
9023,494,7,127232,116106
9026,492,7,127229,116094
9028,490,7,127239,116103
9031,489,7,127249,116104
9033,488,7,127265,116108
9036,488,7,127268,116109
9038,490,7,127277,116115
9040,493,7,127282,116117
9043,494,7,127288,116115
9046,493,7,127292,116116
9049,493,7,127292,116114
9051,493,7,127297,116125
9054,492,7,127296,116127
9056,494,7,127301,116133
9059,496,7,127313,116137
9061,499,7,127323,116131
9063,500,7,127325,116140
9066,499,7,127341,116137
9068,497,7,127341,116144
9071,496,7,127339,116137
9073,494,7,127345,116147
9076,494,7,127353,116144
9078,496,7,127360,116143
9080,498,7,127351,116151
9083,498,7,127361,116150
9085,496,7,127363,116156
9089,495,7,127376,116154
9091,494,7,127382,116156
9094,493,7,127387,116152
9096,494,7,127384,116157
9099,496,7,127395,116156
9101,499,7,127394,116173
9103,499,7,127403,116165
9106,498,7,127399,116175
9108,496,7,127403,116172
9111,495,7,127406,116171
9113,495,7,127405,116172
9116,495,7,127408,116170
9118,497,7,127409,116166
9120,499,7,127398,116169
9123,500,7,127397,116166
9125,499,7,127382,116162
9128,498,7,127374,116156
9131,497,7,127344,116144
9134,496,7,127323,116134
9136,496,7,127290,116117
9139,499,7,127261,116106
9141,501,7,127214,116090
9143,501,7,127164,116073
9146,500,7,127113,116060
9148,499,7,127064,116034
9151,498,7,127004,116013
9153,496,7,126947,115990
9156,496,7,126898,115979
9158,500,7,126859,115961
9160,501,7,126809,115939
9163,502,7,126748,115925
9165,500,7,126705,115906
9168,498,7,126663,115891
9170,497,7,126628,115871
9174,496,7,126593,115864
9176,496,7,126575,115854
9179,499,7,126548,115848
9181,503,7,126531,115843
9183,503,7,126504,115835
9186,501,7,126490,115824
9188,500,7,126475,115816
9191,499,7,126475,115818
9193,498,7,126446,115819
9196,498,7,126437,115819
9198,503,7,126444,115813
9200,505,7,126431,115810
9203,506,7,126419,115810
9205,505,7,126419,115808
9208,504,7,126410,115805
9210,503,7,126412,115808
9213,502,7,126412,115803
9216,502,7,126423,115806
9219,504,7,126416,115806
9221,507,7,126424,115817
9223,507,7,126419,115813
9226,506,7,126421,115810
9228,505,7,126421,115815
9231,504,7,126429,115818
9233,502,7,126441,115820
9236,502,7,126441,115826
9238,505,7,126462,115826
9240,507,7,126461,115826
9243,508,7,126478,115833
9245,506,7,126478,115837
9248,505,7,126478,115835
9250,504,7,126484,115835
9253,502,7,126505,115838
9255,502,7,126499,115840
9259,504,7,126507,115846
9261,507,7,126512,115843
9263,507,7,126509,115843
9266,504,7,126528,115847
9268,503,7,126528,115848
9271,502,7,126526,115856
9273,501,7,126529,115856
9276,500,7,126540,115848
9278,505,7,126533,115853
9280,506,7,126533,115856
9283,507,7,126547,115856
9285,506,7,126553,115852
9288,504,7,126554,115859
9290,502,7,126554,115849
9293,500,7,126553,115851
9295,500,7,126560,115851
9298,501,7,126568,115856
9300,505,7,126568,115855
9303,506,7,126569,115856
9306,505,7,126570,115856
9308,503,7,126583,115860
9311,502,7,126579,115864
9313,499,7,126579,115864
9316,498,7,126585,115863
9318,500,7,126597,115863
9320,501,7,126608,115863
9323,502,7,126615,115870
9325,501,7,126637,115870
9328,499,7,126637,115878
9330,497,7,126636,115885
9333,496,7,126659,115885
9335,496,7,126659,115892
9338,500,7,126679,115896
9340,502,7,126697,115896
9342,503,7,126685,115902
9346,502,7,126739,115914
9348,501,7,126743,115914
9351,500,7,126743,115927
9353,498,7,126765,115923
9356,498,7,126778,115923
9358,501,7,126778,115934
9360,503,7,126801,115944
9363,504,7,126817,115944
9365,502,7,126817,115941
9368,501,7,126828,115943
9370,499,7,126839,115958
9373,498,7,126852,115958
9375,498,7,126880,115955
9378,500,7,126880,115962
9380,502,7,126873,115962
9382,502,7,126877,115968
9385,499,7,126877,115967
9388,497,7,126887,115970
9391,495,7,126898,115970
9393,492,7,126908,115971
9396,491,7,126908,115970
9398,493,7,126905,115973
9400,495,7,126906,115973
9403,494,7,126911,115966
9405,493,7,126903,115970
9408,489,7,126903,115969
9410,488,7,126918,115969
9413,486,7,126898,115964
9415,486,7,126895,115965
9418,488,7,126895,115971
9420,492,7,126906,115965
9422,492,7,126897,115965
9425,491,7,126899,115965
9427,489,7,126894,115960
9431,488,7,126894,115965
9433,486,7,126902,115966
9436,486,7,126895,115962
9438,488,7,126893,115972
9440,490,7,126893,115963
9443,492,7,126893,115963
9445,492,7,126878,115963
9448,490,7,126895,115959
9450,488,7,126881,115957
9453,487,7,126891,115959
9455,487,7,126880,115958
9458,488,7,126888,115958
9460,491,7,126891,115960
9462,491,7,126887,115954
9465,486,7,126886,115964
9467,479,7,126895,115958
9470,478,7,126886,115962
9473,477,7,126894,115958
9476,479,7,126891,115960
9478,494,7,126899,115964
9480,503,7,126909,115970
9483,512,7,126901,115971
9485,519,7,126907,115968
9488,527,7,126920,115975
9490,534,7,126922,115978
9493,544,7,126920,115978
9495,568,7,126935,115984
9498,581,7,126941,115984
9500,594,7,126946,115983
9502,596,7,126948,115984
9505,566,7,126964,115987
9507,542,7,126974,115991
9510,521,7,126966,115999
9512,499,7,126976,115991
9516,483,7,126988,115993
9518,472,7,126995,116000
9520,470,7,127000,116012
9523,468,7,127009,116004
9525,464,7,127017,116009
9528,461,7,127027,116006
9530,457,7,127037,116015
9533,455,7,127038,116021
9535,455,7,127049,116024
9538,456,7,127054,116029
9540,461,7,127053,116026
9542,461,7,127052,116035
9545,460,7,127074,116033
9547,458,7,127087,116033
9550,457,7,127081,116033
9552,456,7,127083,116042
9555,456,7,127094,116040
9558,460,7,127100,116045
9560,463,7,127103,116049
9563,464,7,127116,116046
9565,463,7,127118,116047
9568,461,7,127118,116047
9570,460,7,127133,116058
9573,460,7,127138,116054
9575,460,7,127146,116052
9578,464,7,127148,116057
9580,468,7,127158,116061
9582,469,7,127155,116072
9585,469,7,127167,116058
9587,468,7,127186,116076
9590,469,7,127175,116072
9592,468,7,127184,116072
9595,469,7,127190,116077
9597,473,7,127196,116077
9600,477,7,127207,116082
9603,479,7,127213,116091
9605,479,7,127217,116092
9608,479,7,127221,116083
9610,479,7,127230,116091
9613,478,7,127229,116095
9615,478,7,127247,116100
9618,480,7,127237,116106
9620,486,7,127252,116109
9622,487,7,127254,116106
9625,486,7,127265,116112
9627,485,7,127262,116109
9630,484,7,127269,116108
9632,483,7,127283,116115
9635,484,7,127290,116113
9637,486,7,127292,116127
9639,489,7,127293,116127
9643,489,7,127298,116132
9645,487,7,127304,116126
9648,486,7,127305,116120
9650,485,7,127304,116121
9653,484,7,127295,116127
9655,484,7,127295,116116
9658,487,7,127295,116111
9660,489,7,127270,116104
9662,490,7,127245,116104
9665,487,7,127223,116081
9667,486,7,127186,116075
9670,485,7,127186,116063
9672,483,7,127103,116052
9675,482,7,127051,116052
9677,485,7,127016,116013
9679,487,7,126963,115991
9682,487,7,126900,115965
9684,486,7,126900,115956
9688,485,7,126800,115932
9690,484,7,126747,115920
9693,482,7,126747,115892
9695,482,7,126655,115877
9698,484,7,126622,115877
9700,488,7,126593,115851
9702,488,7,126555,115844
9705,486,7,126530,115838
9707,485,7,126530,115831
9710,484,7,126484,115814
9712,483,7,126463,115813
9715,484,7,126463,115813
9717,487,7,126418,115806
9719,489,7,126423,115806
9722,491,7,126399,115790
9724,490,7,126399,115789
9728,489,7,126387,115794
9730,489,7,126372,115794
9733,487,7,126377,115790
9735,487,7,126377,115787
9738,489,7,126363,115785
9740,494,7,126367,115790
9742,495,7,126362,115790
9745,493,7,126369,115783
9747,493,7,126369,115787
9750,492,7,126370,115792
9752,491,7,126371,115792
9755,491,7,126383,115788
9757,494,7,126383,115791
9759,497,7,126385,115794
9762,498,7,126382,115794
9764,497,7,126401,115792
9767,496,7,126401,115802
9769,494,7,126401,115809
9773,493,7,126417,115810
9775,493,7,126411,115810
9778,495,7,126419,115803
9780,499,7,126419,115809
9782,499,7,126434,115815
9785,499,7,126439,115815
9787,498,7,126433,115811
9790,497,7,126451,115822
9792,496,7,126451,115815
9795,497,7,126456,115817
9797,499,7,126466,115817
9799,502,7,126466,115819
9802,504,7,126466,115810
9804,502,7,126460,115819
9807,501,7,126468,115819
9809,501,7,126480,115822
9812,499,7,126480,115825
9815,499,7,126475,115825
9818,501,7,126482,115822
9820,505,7,126482,115821
9822,505,7,126480,115823
9825,504,7,126478,115823
9827,502,7,126481,115823
9830,498,7,126481,115828
9832,495,7,126492,115823
9835,495,7,126485,115823
9837,497,7,126501,115826
9839,499,7,126490,115824
9842,501,7,126490,115826
9844,499,7,126501,115833
9847,498,7,126508,115833
9849,497,7,126512,115833
9852,495,7,126512,115836
9854,496,7,126520,115844
9858,498,7,126533,115844
9860,501,7,126554,115840
9862,503,7,126560,115851
9865,501,7,126560,115861
9867,501,7,126584,115868
9870,501,7,126601,115868
9872,501,7,126609,115871
9875,501,7,126609,115883
9877,506,7,126637,115886
9879,509,7,126641,115886
9882,510,7,126651,115894
9884,510,7,126666,115898
9887,509,7,126675,115894
9889,508,7,126708,115896
9892,508,7,126715,115897
9894,508,7,126730,115906
9897,511,7,126730,115911
9900,516,7,126744,115917
9902,517,7,126741,115917
9905,515,7,126755,115916
9907,513,7,126763,115917
9910,512,7,126771,115923
9912,510,7,126783,115928
9915,511,7,126799,115929
9917,513,7,126799,115933
9919,515,7,126799,115933
9922,516,7,126811,115933
9924,515,7,126810,115938
9927,512,7,126822,115942
9929,511,7,126827,115935
9932,509,7,126828,115935
9934,509,7,126818,115930
9937,510,7,126829,115930
9939,513,7,126818,115931
9942,516,7,126820,115932
9945,515,7,126830,115928
9947,512,7,126818,115936
9950,512,7,126817,115923
9952,512,7,126828,115929
9955,511,7,126825,115931
9957,516,7,126824,115928
9959,518,7,126824,115931
9962,519,7,126816,115932
9964,519,7,126810,115930
9967,518,7,126817,115931
9969,517,7,126810,115930
9972,516,7,126818,115930
9974,517,7,126805,115929
9977,519,7,126808,115931
9979,522,7,126803,115927
9981,524,7,126815,115931
9985,522,7,126805,115927
9987,521,7,126812,115923
9990,519,7,126804,115930
9992,516,7,126803,115932
9995,513,7,126809,115922
9997,513,7,126794,115929
9999,514,7,126798,115920
10002,516,7,126809,115921
10004,517,7,126808,115925
10007,521,7,126814,115922
10009,531,7,126820,115928
10012,537,7,126818,115935
10014,545,7,126810,115929
10017,557,7,126819,115932
10019,578,7,126813,115929
10021,587,7,126822,115933
10024,597,7,126837,115930
10027,609,7,126840,115931
10030,628,7,126834,115938
10032,630,7,126851,115946
10035,621,7,126847,115943
10037,591,8,126853,115949
10039,570,7,126865,115952
10042,551,7,126861,115948
10044,537,7,126874,115958
10047,517,7,126872,115965
10049,511,7,126883,115968
10052,507,7,126898,115961
10054,504,8,126911,115970
10057,504,7,126907,115975
10059,504,7,126911,115968
10061,504,7,126933,115979
10064,502,7,126937,115973
10066,500,7,126952,115985
10070,498,7,126946,115987
10072,495,7,126958,115988
10075,495,7,126966,115988
10077,498,7,126966,115992
10079,500,7,126987,115995
10082,500,7,126991,116002
10084,498,7,126987,115997
10087,495,7,126993,116006
10089,493,7,127010,116000
10092,492,7,127011,116002
10094,491,7,127016,116004
10097,493,7,127028,116006
10099,497,7,127033,116017
10101,497,7,127036,116011
10104,496,7,127045,116011
10106,495,7,127044,116022
10109,493,7,127051,116017
10112,491,7,127060,116015
10115,491,7,127060,116014
10117,493,7,127057,116022
10119,496,7,127071,116022
10122,498,7,127079,116023
10124,496,7,127075,116023
10127,494,7,127083,116023
10129,493,7,127084,116028
10132,492,7,127088,116034
10134,492,7,127098,116032
10137,493,7,127098,116032
10139,496,7,127103,116038
10141,497,7,127112,116038
10144,495,7,127118,116047
10146,494,7,127128,116036
10149,492,7,127128,116040
10151,490,7,127128,116043
10155,490,7,127133,116043
10157,493,7,127144,116052
10159,495,7,127144,116049
10162,495,7,127155,116057
10164,493,7,127154,116057
10167,492,7,127170,116063
10169,490,7,127169,116062
10172,488,7,127169,116060
10174,487,7,127169,116056
10177,489,7,127173,116056
10179,493,7,127168,116056
10181,493,7,127168,116058
10184,492,7,127150,116049
10186,491,7,127133,116049
10189,490,7,127119,116045
10191,488,7,127092,116025
10194,487,7,127050,116017
10196,491,7,127050,115998
10199,494,7,127020,115984
10202,495,7,126936,115972
10204,494,7,126882,115972
10207,492,7,126835,115927
10209,490,7,126835,115914
10212,489,7,126782,115896
10214,489,7,126675,115896
10217,490,7,126629,115876
10219,495,7,126629,115834
10221,496,7,126577,115830
10224,496,7,126499,115813
10226,493,7,126499,115800
10229,492,7,126437,115787
10231,492,7,126413,115787
10234,491,7,126385,115781
10236,495,7,126385,115763
10238,498,7,126364,115759
10242,499,7,126319,115759
10244,498,7,126303,115747
10247,496,7,126288,115733
10249,496,7,126282,115733
10252,495,7,126273,115728
10254,494,7,126273,115726
10257,498,7,126258,115723
10259,501,7,126244,115727
10261,502,7,126244,115724
10264,502,7,126234,115724
10266,502,7,126236,115717
10269,502,7,126224,115720
10271,501,7,126224,115710
10274,501,7,126230,115717
10276,504,7,126226,115717
10278,506,7,126239,115723
10281,509,7,126239,115717
10284,508,7,126234,115728
10287,506,7,126245,115728
10289,506,7,126259,115729
10292,504,7,126259,115727
10294,504,7,126257,115727
10297,506,7,126268,115737
10299,511,7,126268,115725
10301,512,7,126266,115728
10304,511,7,126278,115728
10306,510,7,126281,115738
10309,508,7,126281,115727
10311,507,7,126291,115736
10314,507,7,126289,115736
10316,509,7,126303,115736
10318,512,7,126297,115744
10321,515,7,126297,115740
10323,514,7,126298,115738
10327,514,7,126318,115738
10329,513,7,126309,115744
10332,511,7,126309,115745
10334,512,7,126312,115739
10337,516,7,126313,115739
10339,519,7,126329,115742
10341,521,7,126328,115752
10344,520,7,126328,115744
10346,519,7,126336,115745
10349,519,7,126339,115745
10351,517,7,126343,115750
10354,517,7,126343,115746
10356,522,7,126353,115754
10358,524,7,126351,115754
10361,526,7,126360,115762
10363,525,7,126358,115754
10366,523,7,126360,115761
10369,521,7,126370,115763
10372,519,7,126385,115759
10374,519,7,126392,115763
10377,521,7,126392,115768
10379,526,7,126399,115768
10381,527,7,126404,115773
10384,526,7,126412,115783
10386,525,7,126429,115779
10389,524,7,126440,115789
10391,523,7,126466,115790
10394,523,7,126470,115784
10396,525,7,126486,115803
10398,529,7,126497,115809
10401,531,7,126515,115814
10403,531,7,126517,115820
10406,530,7,126535,115826
10408,529,7,126555,115828
10412,528,7,126566,115832
10414,528,7,126577,115839
10417,530,7,126596,115836
10419,533,7,126597,115840
10421,534,7,126611,115843
10424,533,7,126613,115843
10426,530,7,126632,115854
10429,528,7,126642,115859
10431,527,7,126656,115854
10434,525,7,126660,115857
10436,526,7,126663,115859
10438,528,7,126670,115865
10441,527,7,126682,115858
10443,525,7,126674,115862
10446,523,7,126682,115858
10448,521,7,126687,115864
10451,519,7,126689,115867
10454,516,7,126690,115865
10457,516,7,126688,115872
10459,518,7,126696,115870
10461,519,7,126691,115863
10464,517,7,126703,115866
10466,514,7,126701,115865
10469,512,7,126711,115868
10471,510,7,126699,115873
10474,510,7,126704,115870
10476,511,7,126701,115866
10478,513,7,126701,115871
10481,515,7,126693,115874
10483,514,7,126700,115870
10486,512,7,126699,115873
10488,510,7,126695,115870
10491,508,7,126702,115868
10493,508,7,126696,115870
10497,510,7,126694,115864
10499,513,7,126691,115867
10501,515,7,126703,115868
10504,514,7,126695,115874
10506,512,7,126699,115871
10509,511,7,126700,115872
10511,508,7,126696,115877
10514,506,7,126714,115877
10516,505,7,126711,115875
10518,505,7,126713,115877
10521,502,7,126705,115876
10523,501,7,126721,115879
10526,501,7,126716,115885
10528,505,7,126722,115883
10531,511,7,126723,115890
10533,524,7,126734,115891
10536,536,7,126744,115899
10539,548,7,126755,115893
10541,558,7,126758,115905
10544,568,7,126755,115899
10546,580,7,126765,115896
10549,596,7,126779,115905
10551,614,7,126784,115896
10554,617,7,126789,115900
10556,605,7,126795,115913
10558,587,7,126810,115919
10561,569,7,126819,115918
10563,545,7,126820,115921
10566,518,7,126830,115925
10568,509,7,126836,115920
10571,503,7,126855,115931
10573,498,7,126857,115931
10576,497,8,126861,115940
10578,498,7,126879,115936
10580,497,7,126885,115935
10584,495,7,126890,115942
10586,492,7,126899,115938
10589,489,7,126903,115940
10591,487,7,126907,115945
10594,486,7,126907,115948
10596,489,7,126923,115952
10598,491,7,126935,115952
10601,494,7,126944,115961
10603,493,7,126953,115955
10606,493,7,126960,115961
10608,492,7,126960,115964
10611,491,7,126969,115970
10613,490,7,126985,115973
10616,492,7,126985,115968
10618,495,7,126987,115978
10620,497,7,126990,115978
10624,495,7,126999,115979
10626,494,7,127007,115976
10629,494,7,127007,115974
10631,493,7,127017,115983
10634,493,7,127030,115983
10636,497,7,127035,115986
10638,500,7,127035,115986
10641,501,7,127044,116001
10643,501,7,127049,116001
10646,500,7,127065,116010
10648,497,7,127068,116001
10651,496,7,127068,116003
10653,495,7,127073,116004
10656,497,7,127080,116004
10658,502,7,127088,116016
10660,502,7,127088,116020
10663,501,7,127098,116021
10665,501,7,127104,116021
10669,500,7,127121,116021
10671,498,7,127119,116027
10674,497,7,127122,116028
10676,500,7,127122,116029
10678,504,7,127122,116034
10681,505,7,127128,116036
10683,504,7,127140,116036
10686,503,7,127147,116034
10688,502,7,127147,116042
10691,500,7,127154,116048
10693,500,7,127157,116048
10696,501,7,127163,116051
10698,505,7,127163,116050
10700,506,7,127168,116049
10703,505,7,127145,116043
10705,502,7,127145,116038
10708,501,7,127138,116036
10711,500,7,127115,116036
10714,500,7,127093,116025
10716,501,7,127093,116003
10718,503,7,127055,115992
10721,503,7,126984,115992
10723,502,7,126953,115978
10726,499,7,126897,115936
10728,499,7,126847,115936
10731,497,7,126789,115904
10733,496,7,126789,115892
10736,499,7,126734,115865
10738,502,7,126642,115852
10740,503,7,126642,115827
10743,502,7,126533,115827
10745,500,7,126463,115806
10748,499,7,126460,115797
10750,496,7,126460,115759
10754,496,7,126384,115759
10756,498,7,126367,115755
10758,500,7,126337,115751
10761,502,7,126337,115725
10763,500,7,126314,115720
10766,499,7,126278,115720
10768,498,7,126262,115717
10771,497,7,126262,115708
10773,498,7,126222,115708
10776,504,7,126222,115703
10778,509,7,126215,115696
10780,511,7,126200,115696
10783,510,7,126196,115694
10785,509,7,126182,115705
10788,509,7,126182,115690
10790,508,7,126185,115697
10793,509,7,126176,115697
10796,511,7,126184,115697
10798,514,7,126178,115700
10801,516,7,126178,115689
10803,516,7,126172,115689
10806,515,7,126189,115690
10808,515,7,126187,115701
10811,513,7,126187,115695
10813,513,7,126189,115705
10816,516,7,126187,115705
10818,518,7,126196,115704
10820,520,7,126205,115710
10823,519,7,126216,115712
10825,517,7,126234,115712
10828,516,7,126246,115718
10830,515,7,126258,115724
10833,514,7,126258,115728
10835,517,7,126273,115730
10838,519,7,126269,115730
10841,519,7,126288,115737
10843,518,7,126295,115733
10846,517,7,126307,115741
10848,516,7,126306,115739
10851,514,7,126327,115744
10853,513,7,126324,115749
10856,514,7,126324,115745
10858,520,7,126336,115745
10860,521,7,126335,115742
10863,520,7,126338,115755
10865,519,7,126356,115749
10868,518,7,126353,115753
10870,516,7,126365,115753
10873,516,7,126370,115753
10875,517,7,126366,115759
10877,520,7,126371,115762
10881,522,7,126396,115764
10883,520,7,126399,115768
10886,519,7,126385,115773
10888,518,7,126408,115765
10891,517,7,126423,115775
10893,515,7,126425,115776
10896,517,7,126440,115783
10898,519,7,126446,115780
10900,520,7,126458,115796
10903,519,7,126461,115794
10905,516,7,126472,115804
10908,516,7,126495,115804
10910,515,7,126511,115806
10913,513,7,126529,115819
10915,515,7,126544,115816
10917,518,7,126566,115828
10920,521,7,126568,115826
10923,520,7,126583,115831
10926,518,7,126591,115830
10928,517,7,126602,115844
10931,515,7,126605,115844
10933,514,7,126612,115848
10936,517,7,126626,115853
10938,521,7,126632,115854
10940,523,7,126651,115859
10943,523,7,126668,115859
10945,519,7,126668,115869
10948,518,7,126686,115861
10950,514,7,126684,115866
10953,513,7,126685,115873
10955,514,7,126691,115873
10957,515,7,126701,115864
10960,516,7,126694,115870
10962,514,7,126708,115879
10966,512,7,126711,115874
10968,510,7,126717,115873
10971,508,7,126711,115875
10973,506,7,126706,115875
10976,507,7,126713,115875
10978,509,7,126713,115870
10980,510,7,126705,115876
10983,509,7,126709,115880
10985,507,7,126707,115872
10988,506,7,126706,115873
10990,503,7,126701,115877
10993,502,7,126711,115868
10995,504,7,126706,115874
10997,507,7,126701,115875
11000,510,7,126700,115875
11002,509,7,126700,115873
11005,508,7,126693,115878
11008,506,7,126693,115868
11011,505,7,126697,115877
11013,504,7,126694,115873
11016,507,7,126690,115869
11018,510,7,126689,115879
11020,512,7,126694,115870
11023,511,7,126691,115874
11025,509,7,126689,115871
11028,508,7,126697,115874
11030,506,7,126685,115869
11033,501,7,126700,115874
11035,500,7,126710,115871
11037,500,7,126699,115874
11040,501,7,126703,115885
11042,502,7,126705,115876
11045,503,7,126714,115880
11047,508,7,126713,115880
11051,513,7,126727,115881
11053,527,7,126733,115888
11056,539,7,126730,115888
11058,549,7,126743,115892
11060,561,7,126756,115896
11063,581,7,126764,115896
11065,593,7,126772,115901
11068,604,7,126772,115900
11070,612,7,126786,115903
11073,609,7,126790,115903
11075,580,7,126801,115909
11077,567,7,126817,115909
11080,538,7,126821,115914
11082,524,7,126821,115907
11085,511,7,126831,115920
11087,503,7,126835,115921
11090,499,7,126835,115918
11092,496,7,126850,115925
11096,496,7,126864,115925
11098,498,7,126870,115938
11100,498,7,126877,115932
11103,495,7,126886,115933
11105,493,8,126886,115943
11108,491,7,126901,115940
11110,489,7,126910,115939
11113,489,7,126910,115952
11115,491,7,126929,115952
11117,493,7,126933,115952
11120,497,7,126951,115958
11122,496,7,126951,115966
11125,495,7,126955,115964
11127,495,7,126968,115964
11130,494,7,126987,115965
11132,493,7,126994,115971
11136,495,7,126991,115979
11138,500,7,127004,115979
11140,501,7,127006,115979
11143,501,7,127015,115981
11145,500,7,127015,115986
11148,499,7,127028,115988
11150,498,7,127036,115988
11153,497,7,127058,115998
11155,501,7,127057,115994
11157,504,7,127057,116006
11160,506,7,127074,116006
11162,506,7,127085,116004
11165,504,7,127094,116013
11167,503,7,127094,116018
11170,502,7,127096,116016
11172,502,7,127107,116016
11175,503,7,127118,116026
11177,508,7,127118,116025
11180,510,7,127135,116029
11183,509,7,127134,116029
11185,508,7,127149,116032
11188,507,7,127154,116047
11190,506,7,127154,116044
11193,506,7,127170,116045
11195,508,7,127178,116045
11197,510,7,127192,116056
11200,514,7,127194,116048
11202,514,7,127199,116048
11205,511,7,127199,116055
11207,509,7,127203,116061
11210,508,7,127214,116061
11212,507,7,127214,116057
11215,510,7,127222,116063
11217,513,7,127224,116063
11219,514,7,127228,116068
