TimeStamp,ECG Data,GSR Data,PPG_Red Data,PPG_IR Data
143503,506,217,127295,110823
143506,506,217,127344,110834
143498,506,217,127262,110794
143501,506,218,127295,110811
143503,506,217,127295,110823
143506,506,217,127344,110834
6,595,244,0,57579
8,575,244,57572,57579
11,544,243,73964,73952
13,514,244,90345,90313
16,477,243,106699,111400
18,467,243,123083,111400
21,461,243,128991,111397
23,456,243,129003,111403
25,449,243,129017,111410
28,438,243,129029,111408
30,425,242,129033,111405
33,415,242,129030,111410
35,402,242,129025,111407
38,398,242,129032,111409
40,395,242,129038,111419
43,393,242,129044,111414
46,392,241,129048,111420
48,391,242,129047,111421
51,389,241,129067,111427
53,388,241,129078,111419
56,386,241,129079,111425
58,383,241,129073,111429
61,381,241,129075,111435
63,379,241,129086,111432
65,377,241,129093,111433
68,376,240,129101,111439
70,375,240,129097,111440
73,374,240,129107,111439
75,374,240,129118,111439
78,373,240,129131,111438
80,374,240,129125,111437
82,375,240,129116,111441
86,375,240,129123,111448
88,376,240,129124,111441
91,378,240,129127,111442
93,379,240,129147,111451
96,380,239,129143,111453
98,381,239,129138,111445
101,382,239,129159,111460
103,383,239,129161,111447
105,384,239,129159,111453
108,386,239,129157,111458
110,387,239,129164,111455
113,388,239,129169,111462
115,389,239,129179,111461
118,390,239,129182,111466
120,393,239,129178,111467
122,395,239,129190,111463
125,397,239,129193,111467
128,398,239,129199,111466
131,400,239,129203,111465
133,402,239,129209,111470
136,403,239,129204,111463
138,406,239,129211,111479
141,408,238,129215,111478
143,410,239,129215,111476
145,411,238,129229,111477
148,414,238,129224,111478
150,415,238,129230,111483
153,417,238,129231,111486
155,420,238,129245,111486
158,422,238,129255,111489
160,424,238,129252,111481
162,425,238,129261,111492
165,427,238,129254,111495
167,429,238,129264,111496
171,431,238,129265,111491
173,434,238,129267,111495
176,436,238,129277,111500
178,437,238,129287,111506
181,440,238,129281,111502
183,443,238,129286,111512
185,444,238,129300,111509
188,445,238,129290,111506
190,448,238,129301,111506
193,449,238,129303,111512
195,452,238,129304,111507
198,454,238,129301,111510
200,456,238,129303,111508
202,459,238,129288,111506
205,460,238,129294,111502
207,464,238,129285,111498
210,466,238,129281,111499
212,468,238,129261,111486
216,470,238,129234,111478
218,474,238,129203,111461
221,476,238,129164,111431
223,477,238,129106,111415
225,479,238,129027,111388
228,481,238,128944,111353
230,483,238,128843,111301
233,484,238,128843,111254
235,487,238,128567,111199
238,488,238,128405,111139
240,491,238,128213,111059
242,493,238,128213,110980
245,494,238,127774,110894
247,497,238,127525,110797
250,499,238,127281,110706
252,501,238,127054,110611
256,502,238,127054,110517
258,504,238,126580,110448
261,505,238,126372,110448
263,507,238,126157,110273
265,508,238,126157,110185
268,509,238,125715,110105
270,510,238,125505,110019
273,510,238,125301,109942
275,510,238,125108,109865
278,510,238,125108,109790
280,509,238,124723,109725
282,508,238,124553,109725
285,506,238,124401,109616
287,504,238,124401,109568
290,501,238,124264,109546
292,499,238,124045,109546
295,497,238,123977,109514
297,492,238,123907,109482
301,490,238,123850,109482
303,485,238,123820,109457
305,483,238,123820,109452
308,481,238,123760,109450
310,479,238,123753,109450
313,477,238,123752,109447
315,474,238,123752,109456
318,473,238,123751,109463
320,472,238,123766,109463
322,471,238,123797,109467
325,470,238,123813,109499
327,470,238,123832,109499
330,470,238,123865,109521
332,470,238,123865,109541
335,470,238,123896,109554
337,470,238,123971,109554
340,470,238,124026,109573
343,471,238,124026,109616
345,472,238,124072,109641
348,472,238,124165,109641
350,473,239,124231,109660
353,474,238,124299,109713
355,475,238,124299,109739
358,477,238,124364,109758
360,478,238,124497,109758
362,479,239,124578,109794
365,481,238,124578,109849
367,482,238,124653,109873
370,483,239,124800,109873
372,484,239,124882,109903
375,486,239,124882,109963
377,487,239,125032,109963
380,489,239,125108,109994
382,492,239,125108,110042
385,493,239,125197,110079
388,495,239,125345,110079
390,496,239,125419,110105
393,498,239,125419,110154
395,499,239,125526,110154
398,500,239,125626,110180
400,501,239,125626,110224
402,503,239,125694,110238
405,504,239,125806,110238
407,505,239,125867,110272
410,507,239,125867,110298
412,509,239,125924,110324
415,509,239,125971,110352
417,510,239,126049,110352
420,511,239,126114,110366
422,513,239,126114,110395
424,515,239,126155,110409
428,516,239,126222,110409
430,517,239,126242,110414
433,518,239,126242,110442
435,519,239,126288,110459
438,519,239,126350,110459
440,519,239,126387,110465
442,521,240,126387,110485
445,522,239,126410,110493
447,524,240,126438,110493
450,524,240,126500,110506
452,525,240,126520,110521
455,526,240,126520,110531
457,527,240,126551,110550
460,527,240,126623,110550
462,528,240,126623,110558
464,528,240,126637,110575
467,529,240,126666,110575
470,529,240,126683,110580
473,531,240,126705,110598
475,531,240,126726,110605
478,532,240,126742,110605
480,532,240,126781,110608
482,533,240,126781,110618
485,533,240,126781,110617
487,536,240,126787,110617
490,536,240,126806,110618
492,537,240,126811,110624
495,537,240,126811,110625
497,537,240,126801,110616
500,538,240,126792,110615
502,538,240,126789,110620
504,538,240,126781,110613
507,538,240,126793,110617
509,537,240,126787,110615
513,537,241,126771,110606
515,538,241,126758,110600
518,538,241,126716,110595
520,538,241,126716,110593
522,539,241,126691,110575
525,539,241,126664,110563
527,539,241,126642,110557
530,540,241,126618,110548
532,540,241,126593,110531
535,540,241,126546,110520
537,541,241,126519,110510
540,541,241,126491,110487
542,541,241,126457,110480
544,540,241,126408,110468
547,540,241,126367,110447
549,540,241,126334,110429
552,540,241,126308,110419
555,540,241,126276,110406
558,541,241,126238,110391
560,541,241,126203,110370
562,542,241,126166,110370
565,542,241,126135,110360
567,542,241,126100,110337
570,542,241,126080,110323
572,541,241,126030,110317
575,541,241,126015,110308
577,541,241,125994,110297
580,541,241,125983,110293
582,542,241,125961,110279
584,542,241,125924,110275
587,543,241,125923,110271
589,543,241,125905,110272
592,543,241,125898,110261
594,544,241,125896,110261
598,544,241,125893,110264
600,544,241,125893,110260
602,545,241,125897,110260
605,545,241,125901,110264
607,545,242,125895,110270
610,545,242,125903,110265
612,545,242,125919,110276
615,545,242,125932,110283
617,546,242,125952,110295
620,546,242,125970,110301
622,546,242,125990,110309
624,546,242,126008,110321
627,546,242,126027,110326
629,545,242,126061,110338
632,545,242,126090,110350
634,545,242,126113,110366
637,545,242,126144,110376
640,544,242,126178,110386
642,545,242,126210,110404
645,545,242,126242,110409
647,545,242,126285,110427
650,546,242,126320,110442
652,546,242,126344,110458
655,546,242,126397,110467
657,546,242,126436,110485
660,546,242,126464,110491
662,546,242,126513,110515
664,546,242,126555,110530
667,546,242,126591,110542
669,546,242,126624,110549
672,547,242,126676,110568
674,546,242,126706,110580
677,547,242,126755,110594
679,547,242,126796,110612
681,547,242,126827,110623
685,546,242,126866,110634
687,546,242,126912,110653
690,546,242,126942,110668
692,546,242,126980,110674
695,546,242,127019,110688
697,546,242,127053,110702
700,546,242,127086,110698
702,545,242,127122,110724
704,545,242,127150,110738
707,544,242,127178,110740
709,544,242,127221,110759
712,543,242,127221,110766
714,543,243,127271,110785
717,542,242,127311,110787
719,541,243,127341,110802
721,540,243,127370,110812
724,540,243,127394,110824
727,541,242,127420,110831
730,541,243,127441,110835
732,541,243,127469,110844
735,541,243,127469,110870
737,541,242,127509,110867
740,540,243,127523,110869
742,540,243,127551,110874
744,541,243,127570,110874
747,541,243,127598,110889
749,541,243,127610,110893
752,541,243,127610,110901
754,541,243,127634,110925
757,541,243,127659,110925
759,540,243,127672,110920
761,539,243,127672,110923
764,539,243,127696,110927
766,539,243,127715,110927
770,540,243,127730,110946
772,539,243,127730,110943
775,539,243,127743,110945
777,539,243,127769,110945
780,539,243,127780,110949
782,539,243,127795,110960
784,538,243,127795,110965
787,538,243,127816,110972
789,538,243,127823,110972
792,538,243,127839,110974
794,538,243,127839,110977
797,538,243,127851,110983
799,537,243,127872,110983
801,537,243,127889,110990
804,537,243,127894,111003
806,537,243,127908,111003
809,537,243,127921,111007
812,537,243,127921,111013
815,537,243,127925,111016
817,537,243,127937,111016
820,536,243,127961,111014
822,535,243,127961,111022
824,535,243,127966,111027
827,535,243,127980,111027
829,535,243,128000,111036
832,534,243,128013,111036
834,534,243,128013,111038
837,534,243,128021,111050
839,534,243,128039,111050
841,533,243,128053,111048
844,533,243,128061,111054
846,533,243,128074,111054
849,533,243,128083,111059
851,533,243,128082,111059
855,533,243,128098,111075
857,534,243,128098,111066
860,533,243,128104,111073
862,533,243,128106,111073
864,533,243,128143,111075
867,532,243,128143,111079
869,532,243,128139,111089
872,531,243,128161,111089
874,531,243,128167,111083
877,530,243,128167,111087
879,530,243,128148,111087
881,530,243,128189,111089
884,530,243,128189,111095
886,530,243,128202,111107
889,531,243,128220,111107
891,531,243,128231,111106
894,531,243,128231,111107
897,532,243,128234,111107
900,532,243,128247,111115
902,532,243,128247,111111
904,532,243,128247,111119
907,532,243,128266,111119
909,531,243,128283,111127
912,531,243,128283,111129
914,531,243,128282,111126
917,531,243,128293,111126
919,531,243,128306,111137
921,531,243,128306,111138
924,532,243,128311,111149
926,533,243,128337,111149
929,534,243,128344,111151
931,533,243,128347,111157
934,532,243,128347,111154
936,531,243,128343,111154
940,530,243,128379,111154
942,530,243,128379,111165
944,529,243,128377,111165
947,529,243,128390,111165
949,529,243,128394,111172
952,530,243,128394,111178
954,530,243,128406,111172
957,530,243,128410,111172
959,530,243,128449,111187
961,530,243,128449,111185
964,530,243,128441,111188
966,530,243,128440,111188
969,530,243,128464,111200
971,530,243,128487,111197
974,530,243,128487,111194
976,530,243,128485,111196
979,529,243,128485,111196
982,529,243,128497,111209
984,529,243,128499,111203
987,528,243,128519,111217
989,527,243,128537,111216
992,526,243,128537,111222
994,525,243,128530,111217
997,525,243,128549,111223
999,524,243,128559,111229
1001,524,243,128562,111224
1004,524,243,128576,111224
1006,524,243,128583,111237
1009,523,243,128589,111234
1011,523,243,128596,111238
1014,524,243,128607,111244
1016,524,243,128608,111246
1019,523,243,128626,111247
1021,523,243,128632,111258
1024,522,243,128639,111255
1027,522,243,128654,111250
1029,522,243,128652,111261
1032,522,243,128664,111257
1034,522,243,128677,111265
1037,523,243,128682,111273
1039,522,243,128692,111278
1041,522,243,128698,111264
1044,523,243,128702,111273
1046,521,243,128712,111276
1049,518,243,128731,111276
1051,514,243,128731,111279
1054,507,243,128742,111296
1056,502,243,128756,111285
1059,501,243,128754,111303
1061,501,243,128771,111304
1063,502,243,128781,111296
1067,508,243,128791,111305
1069,514,243,128786,111309
1072,524,243,128804,111312
1074,535,243,128808,111308
1077,555,243,128822,111312
1079,591,243,128826,111315
1081,631,243,128826,111322
1084,658,243,128855,111330
1086,667,243,128853,111329
1089,651,243,128856,111326
1091,628,243,128856,111334
1094,606,243,128870,111337
1096,580,243,128878,111337
1099,558,243,128889,111339
1101,543,243,128889,111344
1103,539,243,128906,111345
1106,536,243,128918,111349
1108,530,243,128912,111351
1112,524,243,128929,111347
1114,517,243,128938,111354
1117,510,243,128941,111357
1119,505,243,128942,111364
1121,505,243,128957,111367
1124,507,243,128957,111360
1126,509,243,128969,111372
1129,512,243,128968,111376
1131,515,243,128974,111380
1134,516,243,128988,111374
1136,518,243,128985,111390
1139,518,243,128995,111381
1141,519,243,128998,111378
1143,519,243,129016,111389
1146,520,243,129013,111391
1148,520,243,129021,111400
1152,520,243,129024,111369
1154,520,243,129033,111399
1157,520,243,129035,111377
1159,520,243,129041,111401
1161,520,243,129045,111406
1164,520,243,129049,111404
1166,520,243,129056,111402
1169,520,243,129054,111408
1171,520,243,129068,111416
1174,520,243,129075,111394
1176,520,243,129087,111416
1179,521,243,129085,111417
1181,521,243,129100,111423
1183,522,243,129090,111419
1186,523,243,129099,111424
1188,524,243,129108,111419
1191,524,243,129108,111423
1193,524,243,129113,111426
1197,525,243,129116,111425
1199,524,243,129125,111425
1201,525,243,129133,111437
1204,525,243,129136,111432
1206,526,243,129136,111431
1209,526,243,129143,111434
1211,526,243,129144,111431
1214,526,243,129144,111445
1216,527,243,129152,111436
1219,527,243,129163,111440
1221,527,243,129177,111436
1223,527,243,129174,111436
1226,528,243,129180,111446
1228,528,243,129177,111447
1231,528,243,129177,111449
1233,528,243,129192,111474
1236,528,243,129199,111474
1239,527,243,129208,111462
1241,527,243,129208,111460
1244,527,243,129216,111464
1246,528,243,129218,111464
1249,528,243,129223,111474
1251,528,243,129223,111464
1254,528,243,129225,111466
1256,528,243,129237,111466
1259,529,243,129245,111474
1261,530,243,129250,111476
1263,530,243,129250,111483
1266,531,243,129260,111480
1268,532,243,129263,111480
1271,532,243,129267,111484
1273,532,243,129267,111477
1276,532,243,129264,111481
1278,532,243,129275,111481
1281,532,243,129284,111481
1284,533,243,129267,111484
1286,533,243,129270,111484
1289,534,243,129256,111471
1291,534,243,129256,111467
1294,536,243,129249,111461
1296,537,243,129201,111461
1299,537,243,129186,111449
1301,538,243,129186,111421
1303,539,243,129131,111398
1306,540,243,129008,111398
1308,540,243,128926,111359
1311,541,243,128828,111294
1313,542,243,128828,111241
1316,543,243,128708,111178
1318,544,243,128391,111178
1320,544,243,128201,111114
1324,545,243,128201,110953
1326,546,243,127996,110876
1329,547,243,127518,110876
1331,548,243,127269,110782
1334,549,243,127269,110593
1336,550,243,126793,110593
1339,550,243,126575,110512
1341,551,243,126575,110338
1343,551,243,126357,110250
1346,551,243,125919,110250
1348,551,243,125704,110162
1351,551,243,125704,110005
1353,550,243,125256,110005
1356,549,243,125094,109930
1358,547,243,125094,109787
1360,545,243,124906,109711
1363,543,243,124543,109658
1366,539,243,124543,109604
1369,537,243,124245,109604
1371,535,243,124099,109566
1374,530,243,124099,109505
1543,511,244,126253,110411
1546,512,244,126260,110423
1548,512,244,126286,110429
1551,512,244,126314,110440
1543,511,244,126253,110411
1546,512,244,126260,110423
1548,512,244,126286,110429
1551,512,244,126314,110440
1553,512,244,126333,110451
1556,512,244,126356,110442
1558,512,244,126375,110458
1560,512,244,126395,110471
1563,513,244,126408,110473
1565,513,244,126436,110483
1568,513,244,126446,110481
1570,513,244,126446,110491
1573,513,244,126454,110489
1575,513,244,126473,110497
1579,513,244,126487,110491
1581,513,244,126475,110493
1583,513,244,126495,110499
1586,513,244,126505,110500
1588,513,244,126498,110501
1591,513,244,126497,110497
1593,513,244,126497,110497
1596,513,244,126495,110494
1598,513,244,126483,110495
1600,513,244,126489,110497
1603,514,244,126471,110482
1605,514,244,126471,110489
1608,514,244,126454,110479
1610,514,244,126434,110482
1613,514,244,126425,110466
1615,514,244,126404,110465
1618,514,244,126388,110454
1620,514,244,126363,110426
1623,514,244,126345,110439
1626,514,244,126316,110426
1628,514,244,126307,110419
1631,514,244,126273,110383
1633,514,244,126245,110398
1636,514,244,126235,110360
1638,514,244,126202,110378
1640,513,244,126177,110366
1643,513,244,126144,110362
1645,514,244,126123,110340
1648,514,244,126100,110346
1650,514,244,126083,110328
1653,513,244,126057,110295
1655,513,244,126037,110312
1658,513,244,126016,110301
1660,513,244,126013,110301
1662,514,244,125977,110284
1666,514,244,125966,110293
1668,515,245,125961,110281
1671,515,244,125942,110273
1673,515,244,125943,110273
1676,516,244,125926,110273
1678,516,244,125934,110268
1680,516,245,125919,110262
1683,516,244,125917,110267
1685,517,245,125924,110270
1688,517,244,125934,110271
1690,517,245,125928,110274
1693,517,245,125947,110274
1695,518,245,125952,110288
1698,518,245,125952,110285
1700,518,244,125969,110304
1702,518,245,125987,110304
1705,518,245,126012,110305
1708,518,245,126031,110315
1711,519,245,126045,110325
1713,519,245,126070,110324
1716,519,245,126070,110345
1718,520,245,126125,110366
1720,520,245,126146,110367
1723,519,245,126195,110389
1725,519,245,126199,110389
1728,518,245,126247,110392
1730,518,245,126247,110404
1733,518,245,126278,110430
1735,518,245,126338,110438
1738,518,245,126371,110441
1740,518,245,126406,110452
1742,518,245,126430,110452
1745,518,245,126482,110488
1747,518,245,126482,110490
1751,517,245,126522,110505
1753,517,245,126587,110505
1756,516,245,126627,110520
1758,516,245,126627,110557
1760,516,245,126666,110566
1763,516,245,126723,110577
1765,516,245,126723,110591
1768,516,245,126815,110609
1770,515,245,126841,110616
1773,516,245,126841,110626
1775,516,245,126911,110626
1778,515,245,126945,110641
1780,515,245,126945,110663
1782,516,245,126981,110670
1785,516,245,127045,110688
1787,516,245,127076,110704
1790,516,245,127109,110713
1793,516,245,127140,110713
1796,516,245,127176,110726
1798,515,245,127176,110751
1800,515,244,127199,110755
1803,515,245,127265,110767
1805,515,245,127265,110771
1808,515,245,127314,110782
1810,515,245,127349,110782
1813,515,245,127372,110799
1815,514,245,127372,110810
1818,515,245,127394,110818
1820,515,245,127412,110818
1822,515,244,127477,110827
1825,514,244,127477,110842
1827,514,244,127486,110853
1830,514,244,127526,110853
1832,514,244,127553,110864
1836,514,244,127553,110867
1838,514,244,127552,110867
1840,513,244,127601,110881
1843,513,244,127601,110887
1845,513,244,127614,110895
1848,513,244,127652,110895
1850,513,244,127673,110909
1853,513,244,127673,110911
1855,513,244,127687,110911
1858,514,244,127710,110918
1860,513,244,127710,110926
1862,513,244,127720,110925
1865,514,244,127742,110925
1867,513,244,127762,110940
1870,512,244,127762,110946
1872,512,244,127771,110947
1875,512,244,127785,110947
1878,512,244,127812,110957
1880,512,244,127812,110963
1883,512,244,127828,110958
1885,512,244,127835,110958
1888,513,244,127855,110964
1890,513,244,127881,110974
1893,512,244,127881,110980
1895,512,244,127882,110980
1898,512,244,127915,110980
1900,512,244,127915,110987
1902,511,244,127911,110994
1905,511,244,127931,110994
1907,511,244,127947,111000
1910,511,244,127947,111011
1912,510,244,127967,111010
1915,511,244,127970,111010
1917,510,244,127991,111013
1920,511,244,127991,111020
1923,511,244,128001,111024
1925,512,244,128015,111024
1928,512,244,128053,111027
1930,512,244,128059,111036
1933,511,244,128059,111039
1935,511,244,128070,111040
1938,511,244,128062,111041
1940,511,244,128078,111050
1942,510,244,128086,111043
1945,510,244,128097,111051
1947,509,244,128119,111056
1950,509,244,128134,111059
1952,509,244,128131,111070
1955,509,244,128147,111069
1957,509,244,128147,111067
1959,509,244,128153,111081
1963,509,243,128160,111077
1965,509,244,128185,111072
1968,509,244,128192,111086
1970,509,243,128194,111086
1973,509,243,128197,111096
1975,509,243,128210,111097
1978,509,244,128220,111098
1980,509,243,128235,111098
1982,508,243,128233,111105
1985,508,243,128243,111110
1987,507,243,128249,111112
1990,507,243,128268,111114
1992,507,243,128280,111117
1995,507,243,128291,111121
1997,506,243,128296,111129
1999,507,243,128300,111130
2002,507,243,128310,111135
2004,508,243,128313,111133
2008,509,243,128328,111133
2010,509,243,128330,111133
2013,509,243,128341,111151
2015,509,243,128347,111145
2018,509,243,128357,111143
2020,509,243,128364,111147
2022,509,243,128378,111156
2025,509,243,128383,111146
2027,508,243,128374,111156
2030,508,243,128390,111161
2032,508,243,128401,111158
2035,508,243,128419,111160
2037,507,243,128421,111167
2039,508,243,128431,111175
2042,508,243,128434,111178
2044,509,243,128457,111171
2048,509,243,128460,111181
2050,509,243,128467,111180
2053,509,243,128459,111189
2055,509,243,128471,111186
2058,510,243,128487,111194
2060,510,243,128488,111193
2062,510,243,128501,111196
2065,510,243,128507,111198
2067,510,243,128513,111203
2070,510,243,128528,111197
2072,510,243,128535,111208
2075,510,243,128548,111210
2077,510,243,128543,111215
2079,511,243,128561,111215
2082,512,243,128564,111208
2084,513,243,128583,111220
2087,513,243,128582,111229
2089,513,243,128598,111230
2093,513,243,128599,111219
2095,512,243,128612,111242
2098,512,243,128621,111241
2100,512,243,128625,111249
2102,511,243,128630,111240
2105,512,243,128641,111251
2107,512,243,128654,111255
2110,512,243,128666,111240
2112,512,243,128669,111262
2115,511,243,128677,111266
2117,511,243,128694,111267
2119,510,243,128690,111271
2122,509,243,128698,111271
2124,508,243,128701,111251
2127,508,243,128713,111274
2129,508,243,128728,111276
2132,508,243,128734,111259
2135,508,243,128754,111289
2138,508,243,128757,111288
2140,508,243,128761,111294
2142,509,243,128762,111291
2145,509,243,128781,111296
2147,509,243,128788,111295
2150,509,243,128788,111293
2152,509,243,128806,111305
2155,509,243,128814,111304
2157,508,243,128830,111312
2159,509,243,128826,111308
2162,510,243,128838,111313
2164,510,243,128851,111319
2167,510,243,128856,111334
2169,509,243,128861,111323
2172,509,243,128861,111333
2174,509,243,128873,111333
2178,508,243,128872,111334
2180,507,243,128892,111326
2182,507,243,128896,111326
2185,508,243,128904,111339
2187,508,243,128912,111335
2190,508,243,128912,111341
2192,508,243,128923,111358
2195,508,243,128925,111358
2197,507,243,128946,111354
2199,507,243,128946,111351
2202,507,243,128951,111367
2204,507,243,128961,111367
2207,507,242,128971,111365
2209,507,243,128971,111366
2212,507,243,128975,111363
2214,508,242,128992,111366
2217,508,243,128996,111374
2220,508,243,129001,111376
2222,508,243,129006,111376
2225,508,242,129014,111386
2227,508,242,129014,111387
2230,508,242,129023,111388
2232,507,242,129038,111388
2235,503,242,129046,111386
2237,494,242,129046,111398
2239,490,242,129056,111394
2242,486,242,129062,111395
2244,485,242,129073,111395
2247,484,242,129072,111399
2249,484,242,129072,111409
2252,487,242,129079,111411
2254,492,242,129087,111411
2257,497,242,129106,111402
2259,518,242,129106,111413
2262,543,242,129092,111421
2265,570,242,129106,111421
2267,605,242,129119,111415
2270,641,242,129123,111416
2272,645,242,129123,111424
2275,636,242,129133,111426
2277,622,242,129138,111426
2279,602,242,129157,111427
2282,560,242,129157,111431
2284,539,242,129154,111440
2287,531,242,129159,111440
2289,527,242,129166,111434
2292,522,242,129166,111437
2294,519,242,129176,111437
2297,512,242,129182,111434
2299,497,242,129182,111434
2301,491,242,129191,111446
2305,488,242,129196,111446
2307,487,242,129202,111442
2310,488,242,129202,111450
2312,490,242,129180,111450
2315,492,242,129216,111450
2317,495,242,129216,111453
2319,497,242,129217,111452
2322,497,242,129223,111452
2324,497,241,129225,111458
2327,497,242,129225,111457
2329,497,242,129235,111467
2332,497,242,129241,111467
2334,497,242,129241,111467
2337,497,242,129243,111463
2339,497,242,129246,111463
2341,498,241,129256,111468
2344,498,241,129256,111467
2347,499,241,129257,111471
2350,498,241,129257,111471
2352,498,241,129263,111464
2355,498,241,129263,111476
2357,499,241,129269,111469
2359,499,241,129269,111469
2362,500,241,129269,111475
2364,500,241,129275,111479
2367,501,241,129279,111479
2369,502,241,129285,111477
2372,502,241,129285,111477
2374,503,241,129277,111485
2377,504,241,129286,111485
2379,505,241,129303,111482
2381,505,241,129303,111479
2384,506,241,129300,111484
2386,506,241,129305,111484
2390,506,241,129310,111484
2392,507,241,129307,111496
2395,507,241,129312,111491
2397,507,241,129319,111490
2399,508,241,129316,111490
2402,508,241,129320,111491
2404,509,241,129331,111491
2407,509,241,129327,111504
2409,510,241,129335,111504
2412,510,241,129331,111499
2414,510,241,129344,111494
2417,510,241,129344,111492
2419,510,241,129372,111504
2421,510,241,129359,111504
2424,511,241,129360,111506
2426,511,241,129370,111513
2429,511,241,129373,111510
2432,511,241,129377,111511
2435,511,241,129379,111506
2437,512,241,129379,111517
2439,512,241,129377,111516
2442,512,241,129395,111512
2444,512,241,129378,111506
2447,513,241,129388,111512
2449,513,241,129395,111513
2452,513,241,129400,111522
2454,513,241,129406,111522
2457,514,241,129417,111526
2459,515,241,129411,111524
2461,516,241,129415,111530
2464,517,241,129396,111527
2466,517,241,129401,111523
2469,517,241,129408,111525
2471,518,240,129406,111521
2475,518,241,129404,111525
2477,519,240,129387,111516
2479,520,241,129365,111502
2482,521,240,129342,111492
2484,522,240,129310,111483
2487,525,240,129266,111461
2489,526,241,129227,111441
2492,526,241,129152,111410
2494,527,241,129071,111377
2497,527,241,128965,111336
2499,528,241,128852,111282
2501,529,240,128705,111226
2504,532,240,128526,111162
2506,533,241,128335,111088
2509,533,241,128130,111011
2511,534,241,127898,110915
2514,535,240,127649,110828
2516,536,241,127407,110727
2519,536,240,127153,110644
2522,537,241,126912,110545
2524,538,241,126690,110464
2527,538,240,126478,110389
2529,539,241,126273,110307
2532,539,240,126058,110222
2534,540,241,125849,110140
2537,540,241,125644,110057
2539,540,241,125445,109991
2541,540,240,125254,109912
2544,539,241,125080,109846
2546,538,241,124894,109781
2549,537,240,124726,109727
2551,536,241,124566,109673
2554,533,241,124417,109625
2556,529,241,124295,109596
2558,526,241,124193,109565
2562,523,241,124095,109536
2564,520,240,124036,109517
2567,516,241,123983,109497
2569,510,241,123928,109494
2572,508,241,123902,109486
2574,505,241,123880,109465
2577,501,241,123863,109489
2579,496,240,123856,109489
2581,494,241,123856,109489
2584,491,241,123861,109500
2586,488,241,123870,109501
2589,487,241,123877,109515
2591,483,241,123908,109528
2594,482,240,123930,109539
2596,480,241,123964,109565
2598,480,241,124002,109573
2601,480,241,124036,109597
2604,479,241,124083,109608
2607,479,241,124121,109635
2609,478,241,124179,109650
2612,478,241,124231,109654
2614,477,240,124288,109697
2617,477,241,124345,109721
2619,477,241,124420,109750
2621,477,241,124471,109772
2624,478,241,124544,109801
2626,479,241,124625,109825
2629,479,241,124625,109859
2631,479,241,124759,109889
2634,479,241,124844,109903
2636,479,240,124922,109940
2638,480,241,125001,109974
2641,481,241,125081,109996
2643,482,241,125159,110029
2647,483,241,125243,110058
2649,484,240,125318,110085
2652,485,241,125318,110126
2654,485,240,125464,110132
2657,486,241,125540,110170
2659,487,240,125617,110191
2661,488,241,125681,110191
2664,489,241,125755,110241
2666,489,241,125815,110263
2669,490,241,125815,110281
2671,491,240,125927,110313
2674,491,241,125983,110313
2676,491,241,126033,110337
2678,492,240,126033,110349
2681,492,240,126119,110382
2683,494,241,126163,110382
2686,495,241,126212,110395
2689,496,241,126212,110412
2692,497,241,126240,110425
2694,498,240,126301,110431
2697,499,241,126324,110442
2699,499,241,126355,110448
2701,500,241,126369,110448
2704,501,241,126397,110470
2706,501,241,126397,110475
2709,502,241,126416,110482
2711,502,241,126451,110482
2714,502,241,126474,110495
2716,502,241,126474,110501
2718,503,241,126497,110509
2721,503,241,126526,110514
2723,504,241,126526,110523
2726,505,241,126566,110527
2728,505,241,126580,110537
2732,506,241,126580,110545
2734,506,241,126622,110545
2737,507,241,126647,110554
2739,507,241,126647,110559
2741,508,241,126669,110569
2744,508,241,126697,110580
2746,508,241,126708,110580
2749,509,241,126727,110576
2751,509,241,126727,110577
2754,509,241,126731,110586
2756,509,241,126755,110597
2758,510,241,126755,110599
2761,510,241,126774,110599
2763,510,241,126786,110596
2766,510,241,126786,110597
2768,510,241,126789,110597
2771,509,241,126773,110597
2774,509,241,126773,110599
2777,509,241,126789,110602
2779,509,241,126795,110602
2781,509,241,126794,110608
2784,509,241,126793,110607
2786,510,241,126778,110607
2789,510,241,126778,110595
2791,510,241,126734,110595
2794,510,241,126758,110596
2796,510,241,126758,110587
2798,510,241,126748,110589
2801,510,241,126708,110589
2803,509,241,126702,110572
2806,509,241,126702,110565
2808,510,241,126688,110556
2811,510,241,126611,110556
2813,510,241,126611,110534
2817,510,241,126631,110527
2819,510,241,126590,110527
2821,510,241,126556,110524
2824,511,241,126556,110501
2826,511,241,126548,110491
2829,511,241,126494,110491
2831,511,241,126494,110472
2834,511,241,126473,110472
2836,511,241,126434,110465
2838,511,241,126434,110448
2841,511,241,126417,110439
2843,512,242,126400,110439
2846,512,242,126351,110439
2848,512,241,126348,110429
2851,512,241,126348,110427
2853,512,241,126330,110427
2856,511,241,126321,110407
2859,511,241,126307,110405
2861,511,241,126294,110405
2864,511,241,126283,110401
2866,511,241,126297,110402
2869,511,241,126297,110403
2871,511,241,126280,110399
2874,512,241,126278,110399
2876,512,241,126278,110404
2878,513,241,126296,110404
2881,513,241,126326,110414
2883,513,242,126326,110407
2886,513,242,126314,110413
2888,514,241,126333,110431
2891,514,242,126355,110432
2893,513,241,126361,110436
2896,513,241,126380,110436
2898,512,241,126405,110455
2900,512,241,126424,110460
2904,512,241,126458,110473
2906,511,241,126489,110483
2909,511,241,126516,110493
2911,511,241,126528,110500
2914,511,241,126551,110509
2916,510,241,126579,110531
2918,510,241,126616,110537
2921,510,241,126650,110545
2923,510,241,126691,110556
2926,509,241,126719,110569
2928,509,241,126753,110581
2931,509,241,126791,110598
2933,509,241,126807,110608
2936,508,241,126853,110616
2938,508,241,126893,110641
2940,508,241,126931,110644
2944,509,241,126971,110658
2946,509,241,127007,110668
2949,510,241,127051,110694
2951,510,241,127078,110696
2954,510,241,127122,110717
2956,510,241,127156,110728
2958,510,241,127193,110734
2961,511,241,127226,110751
2963,511,241,127270,110768
2966,512,241,127305,110781
2968,513,241,127331,110795
2971,513,241,127370,110799
2973,514,241,127403,110813
2976,515,241,127427,110831
2978,515,241,127471,110836
2980,516,241,127500,110853
2983,516,241,127532,110863
2985,516,241,127554,110874
2989,516,241,127585,110888
2991,516,241,127618,110893
2994,516,241,127650,110895
2996,516,241,127672,110905
2998,516,241,127701,110913
3001,516,242,127718,110925
3003,517,241,127751,110936
3006,519,241,127780,110942
3008,519,242,127796,110953
3011,519,241,127827,110957
3013,519,241,127850,110963
3016,518,242,127869,110976
3018,518,242,127878,110983
3020,517,241,127901,110995
3023,517,242,127928,110993
3025,516,241,127938,111003
3028,517,241,127964,111003
3031,516,242,127982,111016
3034,516,241,128001,111027
3036,516,242,128021,111032
3038,516,242,128043,111038
3041,517,242,128053,111048
3043,518,242,128081,111054
3046,519,242,128088,111062
3048,518,242,128107,111069
3051,519,242,128130,111061
3053,518,242,128135,111066
3056,518,242,128156,111080
3058,517,241,128173,111091
3060,517,242,128175,111096
3063,516,242,128187,111098
3065,517,241,128207,111106
3068,517,242,128218,111109
3070,517,242,128229,111109
3074,517,241,128239,111116
3076,517,242,128257,111129
3078,518,242,128269,111126
3081,518,242,128279,111133
3083,518,242,128295,111135
3086,518,242,128299,111142
3088,518,242,128310,111141
3091,519,242,128317,111141
3093,520,242,128329,111146
3096,520,242,128336,111155
3098,520,242,128353,111155
3100,520,242,128362,111155
3103,520,242,128376,111165
3105,520,242,128383,111164
3108,520,242,128394,111167
3110,520,242,128402,111171
3113,520,242,128417,111171
3116,520,242,128430,111182
3118,520,242,128432,111174
3121,520,242,128437,111193
3123,521,242,128452,111180
3126,520,242,128458,111186
3128,520,242,128467,111192
3131,520,242,128474,111198
3133,519,242,128487,111194
3136,519,242,128487,111199
3138,519,242,128501,111217
3140,519,242,128512,111202
3143,519,242,128513,111210
3145,519,242,128523,111214
3148,519,242,128536,111230
3150,519,242,128542,111210
3153,519,242,128542,111237
3155,518,242,128556,111221
3158,517,242,128556,111227
3161,517,242,128571,111243
3163,517,242,128570,111243
3166,517,242,128592,111225
3168,517,242,128592,111227
3171,517,242,128587,111230
3173,517,242,128611,111242
3176,516,242,128615,111243
3178,516,242,128621,111242
3180,516,242,128624,111242
3183,516,242,128639,111256
3185,515,242,128639,111251
3188,514,242,128645,111256
3190,514,242,128654,111256
3193,513,242,128669,111253
3195,512,242,128669,111263
3197,512,242,128667,111266
3201,512,242,128676,111263
3203,512,242,128676,111267
3206,513,242,128692,111272
3208,513,242,128694,111281
3211,513,242,128711,111280
3213,513,242,128704,111280
3216,513,242,128712,111275
3218,513,242,128712,111270
3220,513,242,128713,111279
3223,513,242,128720,111280
3225,513,242,128725,111280
3228,513,242,128736,111288
3230,513,242,128736,111288
3233,513,242,128733,111288
3235,513,242,128740,111286
3237,513,242,128740,111276
3240,513,242,128760,111276
3243,513,242,128754,111292
3246,514,242,128754,111298
3248,513,242,128775,111300
3251,512,242,128778,111300
3253,511,242,128778,111300
3256,510,242,128789,111298
3258,510,242,128798,111298
3260,509,242,128800,111302
3263,510,242,128812,111311
3265,511,242,128818,111311
3268,512,242,128818,111311
3270,512,242,128796,111311
3273,512,242,128831,111316
3275,512,242,128831,111317
3277,511,242,128843,111318
3280,511,242,128849,111318
3282,510,242,128867,111326
3286,510,242,128867,111329
3288,510,242,128867,111328
3291,511,242,128876,111328
3293,511,242,128876,111331
3296,511,242,128888,111333
3298,511,242,128891,111333
3300,511,242,128906,111335
3303,510,242,128906,111338
3305,509,242,128905,111346
3308,509,242,128914,111346
3310,508,242,128935,111345
3313,506,242,128935,111354
3315,506,242,128946,111360
3317,506,242,128945,111360
3320,506,242,128972,111359
3322,506,242,128968,111360
3325,506,242,128968,111365
3328,506,242,128983,111360
3331,507,242,128982,111377
3333,507,242,128996,111380
3336,508,242,129003,111380
3338,509,242,129016,111383
3340,509,242,129016,111388
3343,509,242,129019,111380
3345,509,242,129033,111391
3348,510,242,129037,111391
3350,510,242,129045,111400
3353,510,242,129053,111392
3355,509,242,129066,111396
3357,510,242,129068,111396
3360,509,242,129077,111404
3362,509,242,129099,111406
3365,509,242,129105,111406
3367,506,242,129097,111411
3371,503,242,129128,111415
3373,497,242,129103,111416
3376,493,242,129131,111422
3378,489,242,129131,111416
3380,485,242,129123,111416
3383,484,242,129131,111429
3385,485,242,129142,111429
3388,487,242,129151,111423
3390,497,242,129154,111426
3393,506,242,129160,111433
3395,517,242,129160,111434
3397,536,242,129169,111434
3400,565,242,129177,111429
3402,603,242,129174,111438
3405,630,242,129196,111444
3407,641,242,129200,111444
3410,636,242,129198,111444
3412,602,242,129190,111447
3416,575,242,129193,111445
3418,551,242,129203,111451
3420,529,242,129204,111450
3423,514,242,129221,111450
3425,509,242,129215,111445
3428,510,242,129224,111454
3430,509,242,129232,111460
3433,504,242,129241,111460
3435,495,242,129239,111462
3437,491,241,129230,111465
3440,489,242,129241,111471
3442,489,241,129244,111465
3445,490,241,129250,111463
3447,492,241,129254,111472
3450,493,241,129262,111470
3452,496,241,129257,111473
3456,498,241,129264,111473
3458,499,241,129276,111471
3460,500,241,129274,111474
3463,500,241,129264,111478
3465,500,241,129272,111471
3468,500,241,129270,111487
3470,500,241,129274,111478
3473,500,241,129289,111477
3475,500,241,129289,111485
3477,501,241,129300,111484
3480,502,241,129294,111476
3482,502,241,129309,111487
3485,504,241,129315,111487
3487,504,241,129307,111492
3490,505,241,129315,111487
3492,505,241,129306,111493
3495,505,241,129319,111495
3497,506,241,129317,111493
3500,506,241,129322,111493
3503,507,241,129337,111497
3505,508,241,129326,111504
3508,508,241,129340,111496
3510,508,241,129339,111508
3513,509,241,129340,111501
3515,509,241,129347,111505
3517,510,241,129354,111509
3520,510,241,129356,111513
3522,511,241,129373,111514
3525,511,241,129365,111507
3527,512,241,129373,111514
3530,513,241,129384,111519
3532,513,241,129382,111521
3535,514,241,129380,111519
3537,514,241,129393,111524
3539,515,241,129398,111532
3543,515,241,129393,111519
3545,516,241,129402,111524
3548,516,241,129400,111533
3550,516,241,129408,111533
3553,516,241,129418,111536
3555,517,241,129423,111512
3557,518,241,129419,111536
3560,518,241,129423,111544
3562,519,241,129435,111543
3565,520,241,129438,111541
3567,520,241,129439,111544
3570,521,241,129444,111547
3572,521,241,129454,111549
3575,521,241,129456,111550
3577,521,241,129466,111556
3579,522,241,129469,111554
3582,522,241,129475,111555
3585,523,241,129476,111559
3588,523,241,129477,111559
3590,524,241,129481,111558
3593,524,241,129484,111563
3595,524,241,129494,111557
3597,524,241,129496,111563
3600,524,241,129497,111566
3602,525,241,129501,111556
3605,525,241,129496,111567
3607,526,241,129509,111566
3610,527,241,129509,111561
3612,527,241,129508,111570
3615,528,241,129490,111563
3617,529,241,129491,111562
3619,529,241,129481,111550
3622,530,241,129462,111541
3624,531,241,129451,111534
3628,532,241,129419,111522
3630,533,241,129388,111502
3633,534,242,129339,111489
3635,535,241,129292,111462
3637,536,241,129292,111430
3640,537,241,129124,111410
3642,537,241,129018,111410
3645,539,241,128902,111304
3647,539,241,128902,111248
3650,541,241,128759,111183
3652,541,241,128396,111110
3655,541,241,128188,111035
3657,541,241,127968,110949
3659,542,241,127716,110949
3662,542,241,127473,110772
3664,542,241,127473,110675
3667,542,241,127233,110592
3670,541,241,126782,110592
3673,540,241,126589,110512
3675,539,241,126589,110362
3677,538,241,126388,110293
3680,538,241,126006,110209
3682,536,241,126006,110138
3685,536,241,125619,110071
3687,534,241,125447,110001
3690,532,241,125287,109939
3692,529,241,125115,109939
3695,527,241,124974,109880
3697,520,241,124974,109783
3699,517,241,124828,109738
3702,514,241,124568,109705
3704,510,241,124464,109672
3707,506,241,124464,109652
3709,503,241,124315,109652
3713,499,241,124256,109612
3715,494,241,124256,109604
3717,492,241,124210,109610
3720,490,241,124162,109595
3722,487,241,124162,109599
3725,486,241,124154,109603
3727,484,241,124152,109603
3730,483,241,124167,109607
3732,480,241,124167,109621
3735,479,241,124173,109632
3737,479,241,124209,109632
3739,478,241,124266,109651
3742,476,241,124266,109684
3744,476,241,124298,109707
3747,476,241,124385,109719
3749,476,241,124441,109719
3752,475,241,124489,109746
3755,474,241,124489,109787
3757,475,241,124552,109813
3760,475,241,124668,109846
3762,475,241,124668,109861
3765,475,241,124807,109861
3767,476,241,124858,109894
3770,477,241,124858,109951
3772,477,241,124953,109982
3775,477,241,125114,109982
3777,478,241,125202,110009
3779,478,241,125202,110072
3782,479,241,125277,110104
3784,480,241,125363,110136
3787,481,241,125449,110157
3789,482,241,125524,110194
3792,483,241,125609,110194
3794,484,241,125772,110216
3796,485,241,125772,110281
3800,486,241,125850,110308
3802,488,241,125926,110308
3805,490,241,126083,110339
3807,491,241,126170,110369
3810,491,241,126170,110417
3812,491,241,126228,110437
3815,490,241,126363,110437
3817,490,241,126424,110465
3819,490,241,126497,110492
3822,489,241,126497,110531
3824,489,241,126555,110550
3827,489,241,126602,110573
3829,490,241,126655,110584
3832,491,241,126709,110584
3834,491,240,126827,110612
3836,492,241,126827,110642
3840,492,241,126847,110656
3842,494,241,126892,110656
3845,495,241,126976,110669
3847,496,241,127033,110688
3850,496,241,127033,110692
3852,496,241,127052,110705
3855,495,241,127085,110719
3857,495,241,127130,110733
3859,496,241,127164,110749
3862,496,241,127200,110761
3864,496,241,127242,110773
3867,496,241,127279,110789
3869,497,241,127303,110796
3872,497,241,127333,110806
3874,497,241,127372,110820
3876,497,241,127400,110826
3879,497,241,127430,110839
3881,496,241,127458,110849
3885,497,240,127478,110851
3887,497,241,127498,110860
3890,497,241,127504,110868
3892,497,240,127522,110874
3895,497,241,127544,110872
3897,497,240,127544,110871
3899,496,240,127560,110882
3902,496,240,127551,110880
3904,496,240,127557,110881
3907,496,240,127561,110879
3909,496,240,127564,110884
3912,496,240,127562,110888
3914,496,240,127558,110896
3916,497,240,127549,110874
3919,497,240,127539,110879
3921,497,240,127529,110873
3924,497,240,127522,110870
3927,497,240,127512,110870
3930,497,240,127486,110866
3932,498,240,127471,110852
3935,498,240,127457,110845
3937,498,240,127434,110838
3939,497,240,127418,110828
3942,497,240,127376,110820
3944,497,240,127358,110808
3947,497,240,127327,110800
3949,497,240,127299,110792
3952,497,240,127278,110768
3954,497,240,127244,110764
3956,497,240,127222,110759
3959,498,240,127186,110738
3961,498,240,127151,110728
3964,499,240,127126,110716
3966,499,240,127091,110708
3970,500,240,127059,110690
3972,500,240,127026,110682
3975,499,240,127005,110667
3977,500,240,126971,110658
3979,500,240,126946,110650
3982,500,240,126931,110644
3984,499,240,126894,110633
3987,500,240,126874,110618
3989,500,240,126864,110616
3992,499,240,126851,110617
3994,500,240,126829,110608
3996,500,240,126824,110605
3999,501,240,126794,110608
4001,502,240,126804,110599
4004,503,240,126793,110601
4006,503,240,126794,110604
4009,504,240,126798,110601
4012,504,240,126781,110595
4015,504,240,126799,110603
4017,504,240,126791,110610
4019,504,240,126809,110608
4022,504,240,126820,110619
4024,504,240,126831,110632
4027,505,240,126840,110631
4029,505,240,126868,110645
4032,505,240,126887,110642
4034,506,240,126915,110660
4036,507,240,126936,110664
4039,508,240,126963,110669
4041,508,240,126981,110684
4044,509,240,127002,110693
4046,509,240,127043,110707
4049,509,240,127068,110710
4051,510,240,127095,110724
4055,510,240,127132,110735
4057,510,240,127168,110737
4059,510,240,127201,110758
4062,511,240,127225,110777
4064,512,240,127267,110784
4067,512,240,127267,110793
4069,512,240,127342,110804
4072,511,240,127374,110817
4074,511,240,127415,110828
4076,510,240,127444,110843
4079,510,240,127484,110856
4081,510,240,127529,110865
4084,509,240,127560,110878
4086,510,240,127588,110893
4089,510,240,127625,110906
4091,510,240,127664,110917
4094,511,240,127664,110935
4097,512,240,127743,110957
4099,512,240,127777,110958
4102,512,240,127809,110972
4104,512,240,127844,110977
4107,512,240,127844,111010
4109,512,240,127891,110999
4112,511,240,127927,111019
4114,511,240,127960,111024
4116,511,240,127984,111024
4119,511,240,128029,111048
4121,511,240,128029,111058
4124,512,240,128047,111063
4126,511,240,128091,111063
4129,511,240,128122,111069
4131,511,240,128122,111083
4134,510,240,128147,111095
4136,509,240,128188,111106
4139,509,240,128203,111106
4142,509,240,128223,111124
4144,509,240,128223,111118
4147,509,240,128240,111126
4149,509,240,128272,111126
4152,509,240,128304,111139
4154,509,240,128304,111144
4156,509,240,128304,111152
4159,509,240,128335,111160
4161,509,240,128335,111159
4164,510,240,128358,111163
4166,510,240,128370,111171
4169,510,240,128388,111166
4171,510,240,128390,111166
4174,510,240,128411,111175
4176,510,240,128411,111186
4178,511,240,128423,111188
4182,511,240,128435,111192
4184,510,240,128454,111197
4187,510,240,128454,111201
4189,511,240,128469,111201
4192,510,240,128485,111196
4194,510,240,128485,111212
4196,510,240,128494,111216
4199,511,240,128520,111220
4201,512,240,128520,111223
4204,512,240,128530,111219
4206,513,240,128546,111219
4209,513,240,128559,111232
4211,513,240,128559,111231
4214,513,240,128569,111236
4216,513,240,128560,111236
4218,513,240,128610,111244
4221,513,240,128610,111238
4224,513,240,128601,111252
4227,513,240,128627,111252
4229,512,240,128649,111254
4232,512,240,128650,111264
4234,511,240,128650,111269
4236,511,240,128665,111274
4239,510,240,128679,111284
4241,510,240,128679,111276
4244,510,240,128702,111276
4246,510,240,128720,111285
4249,510,240,128720,111291
4251,510,240,128721,111298
4254,510,240,128736,111298
4256,510,240,128764,111299
4258,509,240,128764,111304
4261,508,240,128754,111306
4263,508,240,128769,111312
4267,508,240,128774,111318
4269,509,239,128785,111319
4272,509,240,128783,111319
4274,509,239,128808,111315
4276,509,239,128808,111323
4279,509,240,128815,111328
4281,510,240,128834,111328
4284,511,240,128841,111337
4286,511,239,128857,111342
4289,510,239,128857,111346
4291,509,239,128854,111344
4294,509,239,128869,111344
4296,508,240,128886,111350
4298,508,239,128886,111354
4301,508,239,128886,111358
4303,508,239,128887,111361
4306,508,239,128891,111362
4308,508,239,128893,111360
4312,508,239,128911,111360
4314,507,239,128935,111367
4316,507,239,128935,111361
4319,507,239,128919,111373
4321,508,239,128930,111373
4324,508,239,128946,111372
4326,508,239,128959,111381
4329,509,239,128959,111378
4331,509,239,128954,111372
4334,509,239,128953,111378
4336,509,239,128971,111385
4338,508,239,128977,111387
4341,508,239,128987,111388
4343,507,239,128991,111389
4346,507,239,128997,111387
4348,507,239,128985,111392
4352,507,239,129002,111398
4354,507,239,129000,111398
4356,507,239,129005,111398
4359,508,239,129013,111409
4361,507,239,129020,111403
4364,506,239,129025,111405
4366,506,239,129031,111406
4369,505,239,129040,111407
4371,505,239,129031,111408
4374,505,239,129033,111411
4376,504,239,129041,111412
4378,504,239,129045,111411
4381,505,239,129057,111413
4383,506,239,129044,111414
4386,506,239,129054,111420
4388,507,239,129055,111417
4391,506,239,129066,111426
4393,506,239,129077,111416
4396,505,239,129081,111418
4399,506,239,129069,111420
4401,506,239,129078,111419
4404,506,239,129083,111425
4406,507,239,129088,111422
4409,508,239,129094,111424
4411,509,239,129101,111428
4414,509,239,129089,111428
4416,509,239,129106,111428
4418,509,239,129110,111432
4421,509,239,129107,111429
4423,508,239,129101,111439
4426,508,239,129118,111433
4428,508,239,129128,111438
4431,507,239,129127,111441
4433,508,239,129132,111438
4435,508,239,129135,111447
4439,509,239,129137,111445
4441,509,239,129155,111456
4444,510,238,129154,111445
4446,510,239,129153,111450
4449,510,238,129161,111451
4451,510,239,129164,111455
4454,510,238,129166,111447
4456,510,238,129168,111455
4458,510,238,129172,111448
4461,510,239,129194,111462
4463,510,239,129189,111468
4466,510,239,129196,111462
4468,510,238,129208,111465
4471,510,238,129210,111474
4473,509,238,129220,111472
4475,509,238,129226,111476
4478,508,238,129220,111473
4481,505,238,129228,111477
4484,498,238,129236,111483
4486,495,238,129246,111486
4489,493,238,129259,111490
4491,491,238,129257,111489
4494,490,238,129262,111498
4496,491,238,129267,111493
4498,494,238,129277,111494
4501,499,238,129275,111493
4503,510,238,129275,111493
4506,520,238,129284,111509
4508,561,238,129298,111506
4511,583,238,129293,111500
4513,630,238,129306,111514
4515,645,238,129305,111502
4518,648,238,129306,111505
4520,639,238,129316,111504
4524,601,238,129319,111510
4526,573,239,129330,111514
4529,552,238,129329,111509
4531,518,238,129323,111512
4534,511,238,129341,111515
4536,509,238,129340,111502
4538,510,238,129340,111509
4541,509,238,129343,111519
4543,505,238,129356,111517
4546,500,238,129356,111517
4548,496,238,129362,111528
4551,492,238,129369,111523
4553,489,238,129374,111526
4555,489,238,129374,111530
4558,490,238,129377,111524
4560,492,238,129381,111521
4563,495,238,129383,111533
4566,497,238,129391,111537
4569,498,238,129391,111539
4571,499,238,129391,111538
4574,499,238,129403,111542
4576,499,238,129410,111539
4578,499,238,129410,111542
4581,500,238,129420,111547
4583,501,238,129418,111546
4586,501,238,129427,111546
4588,501,238,129418,111544
4591,501,238,129425,111571
4593,500,238,129429,111543
4595,500,238,129429,111542
4598,500,237,129433,111567
4600,500,237,129430,111567
4603,500,238,129437,111543
4605,500,237,129437,111550
4609,501,238,129435,111561
4611,501,237,129439,111550
4614,501,237,129446,111556
4616,501,237,129444,111556
4618,502,238,129442,111556
4621,502,237,129451,111555
4623,502,237,129451,111553
4626,502,237,129450,111553
4628,501,237,129450,111553
4631,501,237,129457,111556
4633,500,237,129457,111555
4635,500,237,129457,111560
4638,500,237,129449,111558
4640,500,237,129458,111558
4643,500,237,129461,111556
4645,500,237,129461,111566
4648,501,237,129464,111569
4651,501,237,129468,111569
4654,501,237,129478,111566
4656,500,237,129478,111554
4658,500,237,129488,111570
4661,500,237,129475,111570
4663,500,237,129483,111566
4666,500,237,129482,111566
4668,500,236,129482,111578
4671,500,236,129488,111567
4673,500,236,129492,111567
4675,500,236,129505,111571
4678,501,236,129505,111573
4680,502,236,129503,111579
4683,502,236,129500,111579
4685,502,236,129516,111575
4688,503,236,129516,111573
4690,503,236,129525,111573
4694,503,236,129528,111585
4696,503,236,129528,111584
4698,504,236,129533,111590
4701,504,236,129506,111590
4703,504,236,129545,111592
4706,504,236,129545,111587
4708,504,236,129553,111598
4711,504,236,129546,111598
4713,504,236,129566,111602
4715,504,236,129570,111604
4718,505,236,129570,111609
4720,506,236,129572,111610
4723,507,236,129577,111610
4725,507,236,129585,111598
4728,508,235,129585,111603
4730,508,236,129567,111593
4733,509,235,129564,111593
4736,509,236,129568,111605
4738,509,235,129568,111583
4741,510,235,129556,111591
4743,512,235,129535,111569
4746,513,235,129519,111574
4748,515,235,129497,111555
4751,516,235,129472,111555
4753,517,235,129397,111539
4755,518,235,129397,111492
4758,519,235,129335,111466
4760,521,235,129266,111466
4763,522,235,129073,111425
4765,523,235,128977,111396
4768,524,235,128977,111356
4770,525,235,128838,111247
4773,526,235,128707,111247
4775,526,235,128371,111184
4777,526,235,128371,111061
4781,526,235,128179,110988
4783,526,235,127990,110914
4786,526,235,127783,110839
4788,525,235,127583,110764
4791,525,235,127378,110764
4793,525,235,127033,110706
4795,524,235,127033,110572
4798,522,235,126852,110511
4800,519,235,126691,110511
4803,517,235,126414,110455
4805,515,235,126257,110408
4808,512,235,126257,110336
4810,506,235,126103,110288
4813,502,235,125954,110228
4815,499,235,125818,110181
4817,497,235,125688,110136
4820,493,235,125583,110091
4823,490,235,125472,110052
4826,487,235,125370,110014
4828,483,234,125265,109980
4831,481,234,125166,109951
4833,478,234,125088,109935
4835,476,234,125013,109905
4838,474,234,124953,109893
4840,472,234,124906,109871
4843,469,234,124874,109872
4845,467,234,124841,109863
4848,466,234,124824,109859
4850,465,234,124800,109857
4853,464,234,124791,109867
4855,463,234,124800,109878
4857,462,234,124817,109881
4860,462,234,124833,109885
4862,463,234,124860,109902
4866,463,234,124886,109924
4868,463,234,124918,109928
4871,464,234,124962,109942
4873,464,234,124999,109956
4875,464,234,125043,109973
4878,466,234,125082,110003
4880,467,234,125137,110025
4883,469,234,125195,110044
4885,470,234,125236,110069
4888,471,234,125309,110094
4890,473,234,125377,110110
4893,474,234,125420,110140
4895,475,234,125494,110162
4897,476,234,125562,110193
4900,478,234,125617,110209
4902,479,234,125703,110245
4905,479,234,125775,110264
4908,480,233,125847,110301
4911,481,233,125910,110321
4913,482,233,125983,110336
4915,483,233,126058,110371
4918,484,234,126126,110397
4920,485,233,126205,110422
4923,487,233,126263,110448
4925,488,234,126337,110474
4928,489,233,126410,110498
4930,489,233,126474,110513
4933,489,233,126542,110540
4935,489,233,126594,110569
4937,489,233,126667,110577
4940,490,233,126725,110612
4942,491,233,126784,110629
4945,491,233,126841,110653
4947,492,233,126897,110676
4951,493,233,126954,110691
4953,493,233,127010,110717
4955,493,233,127063,110732
4958,493,233,127121,110758
4960,494,233,127169,110764
4963,495,233,127235,110786
4965,496,233,127274,110809
4968,497,233,127332,110826
4970,498,233,127387,110850
4973,498,233,127430,110864
4975,499,233,127474,110874
4977,499,233,127535,110901
4980,499,233,127581,110909
4982,499,233,127625,110936
4985,499,233,127670,110945
4987,499,233,127707,110958
4990,499,233,127750,110971
4993,499,233,127787,110976
4995,499,233,127815,110999
4998,499,233,127847,111015
5000,500,233,127891,111017
5003,500,233,127900,111027
5005,501,233,127928,111036
5008,501,233,127959,111040
5010,501,232,127978,111056
5013,501,232,127996,111049
5015,500,232,128002,111070
5017,500,232,128025,111062
5020,500,232,128030,111064
5022,500,232,128032,111066
5025,500,233,128032,111070
5027,501,232,128035,111066
5030,501,232,128046,111070
5032,501,232,128045,111071
5035,501,232,128035,111064
5038,501,232,128035,111075
5040,501,232,128012,111057
5043,501,232,128003,111063
5045,501,232,127987,111041
5048,501,232,127987,111050
5050,500,232,127962,111043
5053,500,232,127942,111032
5055,500,232,127926,111023
5057,500,232,127899,111020
5060,500,232,127877,111002
5062,501,232,127849,111000
5065,501,232,127822,110979
5067,502,232,127771,110967
5070,502,232,127743,110980
5072,503,232,127708,110942
5074,502,231,127708,110928
5078,503,231,127615,110930
5080,503,231,127580,110930
5083,503,231,127554,110886
5085,503,231,127554,110869
5088,503,231,127510,110853
5090,503,231,127435,110839
5093,502,231,127392,110826
5095,502,231,127353,110814
5097,503,231,127320,110814
5100,503,231,127285,110787
5102,503,231,127285,110778
5105,503,231,127259,110768
5107,502,231,127201,110768
5110,501,231,127181,110757
5112,500,231,127181,110744
5114,500,231,127144,110728
5117,500,231,127111,110730
5120,500,231,127084,110730
5123,501,231,127083,110716
5125,501,231,127083,110718
5128,502,231,127075,110707
5130,502,231,127050,110707
5133,502,231,127066,110707
5135,502,231,127066,110711
5137,501,231,127056,110714
5140,501,230,127068,110714
5142,500,231,127083,110718
5145,500,230,127091,110721
5147,500,230,127091,110732
5150,500,230,127107,110743
5152,500,230,127134,110743
5154,500,230,127162,110742
5157,500,230,127162,110763
5159,500,230,127178,110774
5163,501,230,127223,110774
5165,502,230,127259,110784
5168,501,230,127259,110800
5170,502,230,127312,110800
5173,502,230,127347,110816
5175,502,230,127347,110835
5177,502,230,127375,110845
5180,503,230,127438,110845
5182,503,230,127481,110861
5185,503,230,127481,110882
5187,503,229,127514,110893
5190,503,229,127570,110893
5192,502,229,127624,110911
5194,502,229,127651,110921
5197,502,229,127651,110944
5199,502,229,127678,110954
5202,502,229,127752,110954
5204,502,229,127790,110967
5208,501,229,127790,110991
5210,501,229,127826,111004
5213,501,229,127882,111004
5215,500,229,127926,111014
5217,500,229,127926,111034
5220,501,229,127946,111051
5222,501,229,127985,111061
5225,502,229,128018,111074
5227,503,229,128052,111083
5230,503,229,128076,111083
5232,504,229,128144,111093
5234,504,229,128144,111109
5237,504,229,128163,111119
5239,505,229,128194,111119
5242,506,229,128233,111128
5244,506,228,128267,111133
5248,506,228,128267,111155
5250,505,228,128281,111159
5253,505,228,128325,111159
5255,504,228,128355,111171
5257,503,228,128355,111180
5260,503,228,128374,111193
5262,504,228,128392,111196
5265,504,228,128413,111199
5267,504,228,128424,111214
5270,504,228,128444,111214
5272,504,228,128500,111226
5274,505,228,128500,111231
5277,505,228,128500,111238
5279,507,228,128515,111238
5282,508,228,128568,111244
5284,508,228,128569,111255
5287,508,228,128569,111254
5289,507,228,128572,111251
5293,507,228,128580,111261
5295,507,227,128593,111272
5297,507,228,128604,111260
5300,507,228,128618,111272
5302,506,227,128647,111272
5305,506,227,128656,111283
5307,506,227,128664,111281
5310,506,227,128679,111283
5312,506,227,128679,111293
5314,506,227,128682,111298
5317,507,227,128702,111292
5319,507,227,128704,111298
5322,507,227,128723,111308
5324,508,227,128729,111307
5327,508,227,128726,111308
5329,508,227,128745,111319
5332,508,227,128747,111314
5335,507,227,128768,111326
5337,507,227,128761,111321
5340,506,227,128770,111323
5342,505,227,128773,111327
5345,505,227,128784,111321
5347,506,227,128806,111336
5350,507,227,128798,111334
5352,508,227,128805,111338
5354,508,227,128815,111339
5357,509,227,128826,111344
5359,509,227,128827,111341
5362,511,227,128838,111347
5364,511,227,128854,111355
5367,510,227,128851,111362
5369,510,226,128854,111351
5372,510,226,128869,111356
5374,509,226,128878,111363
5377,509,226,128876,111357
5380,509,226,128870,111363
5382,509,227,128892,111371
5385,510,226,128883,111376
5387,510,226,128895,111363
5390,510,226,128903,111364
5392,510,226,128918,111370
5394,510,226,128908,111376
5397,510,226,128927,111376
5399,510,226,128935,111384
5402,511,226,128929,111382
5404,511,226,128936,111387
5407,512,226,128943,111393
5409,512,226,128955,111389
5412,512,226,128956,111389
5414,512,226,128971,111396
5416,511,226,128967,111397
5420,511,226,128974,111394
5422,511,226,128975,111400
5425,511,226,128979,111396
5427,510,226,128983,111401
5430,509,226,129000,111411
5432,509,226,128999,111401
5434,508,226,129011,111414
5437,507,225,129014,111416
5439,507,226,129013,111415
5442,508,226,129019,111420
5444,508,226,129031,111428
5447,509,226,129028,111419
5449,510,225,129027,111423
5452,510,225,129032,111420
5454,509,225,129039,111426
5456,509,225,129050,111429
5459,509,225,129048,111426
5462,509,225,129057,111430
5465,509,225,129059,111435
5467,509,225,129070,111431
5470,509,225,129069,111425
5472,510,225,129076,111444
5474,511,225,129078,111436
5477,512,225,129083,111439
5479,513,225,129089,111441
5482,513,225,129096,111444
5484,513,225,129104,111440
5487,513,225,129103,111448
5489,510,225,129106,111442
5492,506,225,129114,111442
5494,502,225,129122,111432
5496,496,225,129120,111448
5499,490,225,129121,111453
5501,488,225,129135,111448
5505,488,225,129137,111445
5507,489,225,129130,111457
5510,492,225,129148,111457
5512,504,225,129154,111463
5514,512,225,129154,111466
5517,529,225,129161,111468
5519,552,225,129163,111463
5522,580,225,129167,111463
5524,640,225,129179,111464
5527,652,224,129181,111464
5529,658,225,129188,111471
5532,651,225,129191,111471
5534,607,225,129200,111474
5536,586,225,129186,111471
5539,540,225,129199,111477
5541,521,225,129204,111478
5544,512,224,129214,111473
5547,509,224,129216,111477
5550,509,225,129222,111506
5552,506,224,129220,111482
5554,503,224,129220,111491
5557,498,224,129237,111509
5559,495,224,129244,111509
5562,492,224,129255,111489
5564,492,224,129255,111494
5567,493,224,129249,111503
5569,495,224,129262,111501
5572,497,224,129274,111508
5574,499,224,129268,111506
5576,501,224,129270,111506
5579,505,224,129294,111512
5581,505,224,129294,111509
5584,505,224,129296,111518
5586,504,224,129292,111518
5590,504,224,129307,111519
5592,502,224,129307,111522
5594,502,224,129306,111520
5597,502,224,129307,111520
5599,502,224,129318,111520
5602,503,224,129317,111517
5604,503,224,129317,111518
5607,505,224,129328,111524
5609,505,224,129336,111524
5612,505,223,129338,111524
5614,505,223,129338,111532
5616,505,223,129343,111538
5619,506,223,129355,111538
5621,506,223,129358,111538
5624,506,224,129361,111531
5626,506,223,129361,111537
5629,506,223,129364,111538
5632,506,223,129364,111538
5634,506,223,129375,111535
5637,507,223,129375,111538
5639,508,223,129378,111537
5642,508,223,129382,111537
5644,509,223,129394,111543
5647,510,223,129394,111544
5649,510,223,129404,111544
5652,510,223,129407,111553
5654,511,223,129407,111554
5656,511,223,129405,111550
5659,512,223,129390,111550
5661,512,223,129420,111559
5664,514,223,129420,111558
5666,514,223,129427,111564
5669,514,223,129397,111562
5671,514,223,129432,111575
5673,514,223,129432,111560
5677,514,223,129445,111560
5679,514,223,129420,111566
5682,514,223,129420,111573
5684,514,223,129454,111574
5687,513,222,129460,111572
5689,513,223,129460,111572
5692,513,222,129471,111579
5694,513,222,129469,111579
5696,513,222,129483,111581
5699,513,222,129483,111576
5701,513,222,129478,111572
5704,513,222,129485,111572
5706,513,222,129497,111582
5709,513,222,129497,111579
5711,513,222,129511,111588
5713,514,222,129497,111588
5716,515,222,129516,111593
5719,515,222,129517,111598
5722,516,222,129517,111586
5724,516,222,129515,111594
5727,517,222,129516,111590
5729,518,222,129519,111591
5732,521,222,129517,111591
5734,522,222,129516,111592
5736,523,222,129516,111596
5739,524,222,129513,111588
5741,526,222,129509,111583
5744,526,222,129492,111583
5746,528,222,129460,111577
5749,529,222,129460,111553
5751,530,222,129434,111542
5753,531,222,129400,111542
5756,532,222,129293,111523
5758,533,222,129293,111473
5762,534,222,129230,111436
5764,536,222,129140,111399
5767,538,222,129045,111352
5769,539,222,128929,111300
5772,542,222,128797,111300
5774,543,221,128488,111247
5776,544,222,128488,111168
5779,544,222,128286,111111
5781,545,222,128077,111037
5784,545,222,127871,110955
5786,546,222,127646,110868
5789,546,222,127416,110791
5791,546,222,127219,110718
5793,545,222,127017,110633
5796,544,221,126821,110572
5798,542,222,126644,110499
5801,540,221,126469,110438
5804,538,222,126295,110364
5807,536,221,126121,110296
5809,532,221,125935,110229
5812,529,221,125774,110172
5814,526,221,125611,110114
5816,523,221,125466,110060
5819,516,221,125331,110014
5821,512,221,125196,109963
5824,509,221,125064,109921
5826,506,221,124942,109869
5829,503,221,124824,109843
5831,498,221,124730,109814
5833,495,221,124648,109788
5836,491,221,124567,109765
5838,489,221,124519,109750
5841,488,221,124473,109743
5843,486,221,124429,109742
5847,485,221,124411,109733
5849,483,221,124396,109726
5852,482,221,124367,109729
5854,482,221,124376,109731
5856,482,221,124385,109735
5859,481,221,124384,109744
5861,481,221,124401,109753
5864,481,221,124425,109768
5866,481,221,124453,109784
5869,480,221,124482,109797
5871,480,221,124524,109808
5873,480,221,124562,109831
5876,481,221,124606,109842
5878,481,221,124648,109859
5881,483,221,124695,109883
5883,483,221,124737,109909
5886,484,221,124790,109925
5889,484,221,124849,109938
5892,484,221,124907,109967
5894,484,220,124966,110000
5896,484,220,125036,110018
5899,486,221,125108,110046
5901,486,220,125169,110073
5904,487,220,125239,110100
5906,488,220,125318,110127
5909,489,221,125377,110156
5911,489,220,125443,110180
5913,490,220,125529,110208
5916,491,220,125600,110233
5918,492,220,125676,110257
5921,493,220,125744,110280
5923,495,220,125814,110310
5926,496,220,125887,110333
5928,497,220,125950,110363
5932,499,220,126012,110375
5934,500,220,126073,110405
5936,501,220,126146,110428
5939,501,220,126201,110448
5941,502,220,126262,110471
5944,503,220,126316,110483
5946,503,220,126370,110513
5949,504,220,126425,110524
5951,504,220,126469,110539
5953,504,220,126514,110563
5956,504,220,126559,110579
5958,505,220,126614,110595
5961,506,220,126653,110604
5963,507,220,126694,110623
5966,508,220,126739,110637
5968,508,220,126774,110644
5971,508,220,126819,110659
5974,507,220,126859,110677
5976,507,220,126892,110692
5979,507,220,126926,110705
5981,507,220,126967,110716
5984,508,220,127005,110730
5986,508,220,127048,110741
5989,508,220,127078,110741
5991,507,220,127130,110776
5993,507,220,127159,110778
5996,507,220,127197,110800
5998,507,220,127220,110796
6001,508,220,127266,110818
6003,508,220,127284,110828
6006,508,220,127323,110828
6008,508,220,127350,110850
6011,508,220,127350,110860
6013,508,219,127396,110879
6016,508,219,127403,110879
6019,508,220,127432,110872
6021,507,219,127450,110884
6024,507,219,127451,110888
6026,508,219,127467,110884
6029,508,220,127467,110886
6031,509,220,127472,110909
6033,509,219,127477,110892
6036,508,219,127489,110916
6038,507,219,127480,110916
6041,505,219,127480,110895
6043,505,219,127480,110889
6046,505,219,127470,110895
6048,504,219,127448,110887
6051,502,219,127440,110879
6053,502,219,127422,110876
6055,502,219,127408,110876
6059,502,219,127401,110862
6061,502,219,127401,110857
6064,502,219,127350,110844
6066,501,219,127330,110838
6069,501,219,127301,110832
6071,499,219,127301,110813
6073,498,219,127274,110805
6076,497,218,127213,110790
6078,496,218,127185,110790
6081,496,219,127152,110757
6083,496,218,127152,110752
6086,496,218,127110,110739
6088,496,218,127039,110739
6091,495,218,127023,110721
6093,494,218,127023,110709
6095,494,218,126976,110689
6098,493,218,126916,110676
6100,493,218,126879,110676
6104,492,218,126858,110655
6106,491,218,126858,110642
6109,490,218,126829,110643
6111,490,218,126772,110643
6113,490,218,126763,110623
6116,490,218,126763,110606
6118,490,217,126729,110607
6121,491,217,126688,110607
6123,491,217,126693,110600
6126,491,218,126693,110593
6128,491,217,126664,110593
6131,491,217,126655,110587
6133,491,217,126655,110581
6135,491,217,126648,110585
6138,492,217,126627,110585
6140,492,217,126654,110586
6144,493,217,126654,110596
6146,492,217,126670,110596
6149,491,217,126647,110606
6151,490,217,126701,110619
6153,489,217,126701,110620
6156,489,217,126739,110620
6158,489,217,126769,110626
6161,489,217,126769,110647
6163,489,216,126785,110654
6166,488,216,126835,110660
6168,487,216,126835,110669
6171,487,216,126869,110687
6173,487,216,126920,110698
6175,486,216,126920,110706
6178,487,216,126981,110706
6180,487,216,127014,110718
6183,487,216,127014,110744
6185,487,216,127055,110756
6189,487,216,127117,110756
6191,486,216,127164,110767
6193,485,216,127164,110791
6196,484,216,127193,110806
6198,484,216,127220,110806
6201,485,216,127308,110822
6203,485,216,127333,110834
6206,485,216,127333,110859
6208,485,215,127373,110866
6211,485,215,127416,110866
6213,484,215,127488,110889
6215,484,215,127488,110906
6218,484,215,127530,110920
6220,485,215,127559,110930
6223,485,215,127597,110948
6225,486,215,127629,110960
6228,487,215,127666,110960
6231,487,215,127729,110980
6233,487,215,127729,110995
6236,487,215,127767,111006
6238,488,215,127797,111006
6241,488,215,127876,111018
6243,489,214,127911,111034
6246,489,214,127911,111038
6248,489,214,127920,111042
6251,489,214,127948,111048
6253,488,214,127964,111064
6255,488,214,127999,111067
6258,488,214,128027,111084
6260,487,214,128062,111101
6263,486,214,128079,111101
6265,485,214,128093,111099
6268,485,214,128118,111108
6270,484,214,128128,111113
6273,485,214,128150,111124
6276,485,214,128180,111137
6278,483,213,128197,111143
6281,482,213,128225,111150
6283,482,213,128240,111154
6286,482,213,128260,111157
6288,482,213,128264,111169
6291,481,213,128288,111177
6293,481,213,128302,111187
6295,481,213,128314,111184
6298,480,213,128328,111187
6300,481,213,128349,111189
6303,481,212,128359,111199
6305,481,212,128378,111202
6308,480,212,128392,111209
6310,480,212,128405,111208
6312,479,212,128403,111214
6316,478,212,128428,111224
6318,478,212,128427,111224
6321,478,212,128450,111225
6323,478,212,128447,111228
6326,478,212,128456,111237
6328,479,212,128477,111240
6331,480,212,128479,111235
6333,480,212,128499,111252
6335,481,212,128502,111246
6338,481,212,128510,111247
6340,482,212,128510,111250
6343,483,212,128524,111260
6345,484,212,128543,111264
6348,485,212,128547,111265
6350,486,211,128553,111266
6352,487,211,128560,111265
6355,487,211,128567,111271
6358,487,211,128575,111268
6361,487,211,128577,111273
6363,488,211,128576,111275
6366,488,211,128594,111280
6368,490,211,128601,111286
6371,491,211,128611,111289
6373,492,211,128625,111293
6375,491,211,128624,111291
6378,492,211,128641,111292
6380,492,211,128629,111299
6383,492,211,128639,111302
6385,492,211,128645,111301
6388,493,210,128647,111297
6390,492,210,128657,111303
6392,492,210,128665,111309
6395,493,210,128662,111312
6397,494,210,128682,111318
6401,495,210,128692,111317
6403,497,210,128700,111331
6406,499,210,128689,111324
6408,500,210,128700,111323
6411,500,210,128713,111323
6413,499,210,128719,111327
6415,498,210,128719,111330
6418,497,210,128730,111334
6420,496,209,128730,111330
6423,496,209,128729,111337
6425,495,210,128746,111338
6428,495,209,128756,111332
6430,497,209,128760,111347
6432,498,209,128767,111346
6435,499,209,128773,111354
6437,500,209,128778,111357
6440,500,209,128778,111353
6443,500,209,128790,111357
6446,500,209,128795,111355
6448,498,209,128795,111356
6451,498,209,128799,111359
6453,498,209,128813,111361
6455,497,209,128812,111362
6458,495,209,128819,111367
6460,495,209,128837,111367
6463,494,208,128833,111367
6465,493,208,128841,111365
6468,493,209,128842,111365
6470,490,208,128862,111377
6472,490,208,128855,111368
6475,488,208,128853,111382
6477,488,208,128863,111373
6480,488,208,128882,111373
6482,487,208,128881,111375
6486,487,208,128879,111375
6488,486,208,128890,111389
6491,486,208,128890,111384
6493,486,208,128895,111402
6495,486,208,128900,111402
6498,486,208,128910,111390
6500,485,208,128913,111390
6503,486,208,128925,111398
6505,488,207,128925,111396
6508,488,208,128925,111400
6510,489,207,128926,111416
6512,490,207,128934,111409
6515,489,207,128951,111405
6517,489,207,128940,111399
6520,489,207,128946,111401
6522,489,207,128950,111410
6525,489,207,128950,111412
6528,488,207,128962,111410
6531,488,207,128970,111407
6533,487,207,128961,111407
6535,487,207,128966,111407
6538,483,207,128982,111416
6540,479,206,128982,111411
6543,472,206,128985,111416
6545,468,206,128977,111416
6548,464,206,128999,111422
6550,458,206,128999,111420
6552,457,206,128987,111416
6555,458,206,128989,111428
6557,461,206,128999,111428
6560,473,206,129008,111425
6562,483,206,129008,111428
6565,505,206,129014,111432
6567,528,206,129017,111432
6571,559,206,129022,111429
6573,620,206,129022,111430
6575,640,206,129025,111433
6578,642,206,129035,111429
6580,633,206,129039,111429
6583,590,206,129049,111433
6585,566,206,129049,111444
6588,533,205,129042,111448
6590,513,205,129051,111448
6592,501,205,129073,111443
6595,490,205,129073,111445
6597,486,205,129063,111452
6600,482,205,129069,111452
6602,476,205,129075,111452
6605,466,205,129075,111458
6607,464,205,129095,111458
6610,463,205,129100,111459
6612,464,205,129100,111458
6615,468,205,129095,111462
6618,472,205,129085,111462
6620,475,205,129122,111463
6623,479,205,129122,111468
6625,481,204,129119,111470
6628,481,204,129109,111473
6630,480,204,129139,111474
6632,481,204,129139,111476
6635,481,204,129142,111476
6637,481,204,129154,111472
6640,482,204,129154,111479
6642,484,204,129157,111480
6645,484,204,129122,111480
6647,484,204,129187,111480
6650,484,204,129187,111486
6652,485,204,129183,111500
6654,485,203,129190,111485
6658,486,204,129196,111485
6660,486,204,129196,111492
6663,488,204,129196,111498
6665,489,203,129203,111497
6668,490,203,129213,111497
6670,489,203,129233,111499
6672,489,203,129233,111498
6675,489,203,129236,111512
6677,490,203,129231,111512
6680,492,203,129251,111518
6682,493,203,129260,111514
6685,496,203,129260,111515
6687,496,203,129257,111514
6690,497,203,129272,111514
6692,496,203,129277,111518
6694,497,203,129277,111520
6697,498,203,129288,111523
6700,499,203,129292,111533
6703,500,203,129301,111535
6705,502,203,129300,111543
6708,503,203,129309,111543
6710,504,203,129334,111543
6712,506,202,129334,111547
6715,507,203,129332,111544
6717,510,203,129336,111544
6720,512,203,129368,111553
6722,513,202,129373,111552
6725,514,203,129373,111559
6727,515,202,129375,111561
6730,515,202,129371,111552
6732,515,202,129380,111562
6734,516,202,129381,111559
6737,517,202,129395,111569
6739,517,202,129411,111568
6743,517,202,129417,111573
6745,518,202,129408,111578
6748,518,202,129417,111574
6750,519,202,129417,111579
6752,520,202,129426,111588
6755,521,202,129435,111586
6757,521,202,129445,111586
6760,521,202,129445,111592
6762,522,202,129451,111588
6765,523,202,129453,111596
6767,524,202,129451,111594
6770,525,202,129454,111597
6772,525,202,129448,111593
6774,525,201,129449,111591
6777,525,201,129443,111587
6779,526,202,129446,111577
6782,527,201,129429,111581
6785,528,201,129410,111566
6788,528,201,129391,111552
6790,529,201,129353,111543
6792,530,201,129307,111522
6795,534,201,129244,111498
6797,536,201,129171,111463
6800,538,201,129087,111427
6802,540,201,128973,111389
6805,542,201,128847,111339
6807,545,201,128691,111283
6810,546,201,128502,111213
6812,548,201,128310,111132
6814,550,201,128091,111055
6817,552,201,127858,110965
6819,553,201,127603,110876
6822,554,201,127354,110784
6824,555,201,127117,110687
6828,556,201,126870,110601
6830,559,201,126662,110517
6832,560,201,126446,110444
6835,561,201,126235,110354
6837,562,201,126024,110274
6840,564,201,125811,110186
6842,563,201,125589,110117
6845,563,201,125408,110050
6847,562,201,125213,109972
6850,560,201,125037,109916
6852,557,201,124848,109846
6854,554,201,124689,109793
6857,550,201,124545,109750
6859,548,201,124405,109712
6862,546,201,124293,109672
6864,543,201,124202,109649
6867,539,201,124126,109626
6870,533,201,124062,109611
6872,530,201,124014,109594
6875,529,201,123968,109585
6877,526,201,123938,109582
6880,522,201,123908,109574
6882,519,201,123899,109581
6885,517,201,123880,109574
6887,515,201,123891,109578
6890,513,201,123882,109580
6892,510,201,123886,109590
6894,509,201,123912,109599
6897,508,201,123919,109605
6899,507,201,123941,109615
6902,506,201,123964,109632
6904,506,201,124004,109649
6907,506,201,124026,109656
6909,508,201,124058,109670
6912,510,201,124093,109687
6915,511,201,124130,109709
6917,512,201,124177,109724
6920,514,201,124221,109748
6922,514,201,124289,109771
6925,515,201,124329,109788
6927,517,201,124385,109813
6930,517,201,124442,109831
6932,518,201,124495,109851
6934,519,201,124550,109882
6937,522,201,124607,109900
6939,524,201,124674,109920
6942,525,201,124733,109952
6944,527,201,124791,109968
6947,528,201,124853,109968
6949,528,201,124913,110013
6951,528,201,124913,110032
6955,530,201,125032,110068
6957,531,201,125087,110068
6960,532,201,125145,110098
6962,535,201,125204,110115
6965,536,201,125255,110134
6967,538,201,125307,110158
6970,538,201,125344,110158
6972,539,201,125399,110182
6974,540,201,125437,110197
6977,542,201,125473,110215
6979,544,201,125517,110214
6982,545,201,125545,110235
6984,546,201,125572,110248
6987,547,201,125594,110273
6989,548,201,125630,110264
6991,549,201,125630,110275
6994,550,201,125670,110291
6996,551,201,125669,110291
7000,553,201,125703,110283
7002,555,201,125704,110293
7005,556,201,125704,110307
7007,558,201,125725,110297
7010,559,201,125731,110301
7012,561,201,125733,110302
7014,562,202,125747,110302
7017,565,202,125772,110308
7019,567,202,125772,110317
7022,570,202,125772,110318
7024,572,202,125785,110319
7027,572,202,125792,110332
7029,573,202,125792,110325
7031,575,202,125813,110337
7034,576,202,125830,110336
7036,577,202,125847,110336
7040,579,202,125848,110339
7042,580,202,125848,110347
7045,582,202,125861,110353
7047,584,202,125876,110353
7050,584,202,125894,110349
7052,584,202,125894,110360
7054,585,202,125897,110366
7057,585,202,125899,110366
7059,585,202,125912,110362
7062,586,202,125912,110363
7064,586,203,125912,110363
7067,586,202,125919,110364
7069,586,202,125918,110364
7071,586,202,125913,110363
7074,587,202,125913,110362
7076,587,203,125897,110354
7079,588,203,125879,110354
7081,589,203,125881,110346
7085,589,203,125881,110333
7087,589,203,125862,110333
7090,589,203,125846,110332
7092,588,203,125846,110321
7094,588,203,125832,110303
7097,589,203,125779,110303
7099,589,203,125786,110303
7102,590,203,125786,110294
7104,590,203,125782,110285
7107,589,203,125734,110280
7109,587,203,125720,110274
7111,587,203,125720,110256
7114,587,203,125681,110256
7116,587,203,125665,110250
7119,587,203,125665,110238
7121,587,203,125636,110230
7124,587,203,125565,110230
7127,586,203,125590,110226
7130,584,203,125590,110205
7132,583,203,125561,110201
7134,583,203,125538,110198
7137,583,203,125519,110198
7139,583,203,125512,110193
7142,583,203,125512,110181
7144,582,203,125495,110180
7147,582,203,125472,110180
7149,581,203,125474,110174
7151,579,203,125474,110169
7154,579,203,125457,110171
7156,578,203,125445,110171
7159,578,203,125452,110163
7161,578,203,125446,110170
7164,578,203,125446,110171
7166,577,203,125444,110177
7170,576,203,125457,110177
7172,575,203,125462,110175
7174,574,203,125462,110174
7177,573,203,125470,110189
7179,573,203,125480,110195
7182,573,203,125497,110207
7184,573,203,125502,110206
7187,574,203,125538,110206
7189,573,203,125568,110216
7191,573,203,125568,110233
7194,573,203,125591,110249
7196,573,204,125619,110249
7199,574,203,125674,110253
7201,574,203,125714,110268
7204,573,203,125714,110284
7206,572,203,125744,110295
7209,572,204,125769,110303
7212,571,203,125809,110313
7214,571,203,125836,110328
7217,570,203,125874,110353
7219,568,204,125915,110353
7222,568,203,125938,110370
7224,567,203,125981,110378
7227,567,203,126029,110395
7229,565,203,126074,110407
7231,563,203,126092,110422
7234,562,203,126133,110432
7236,560,203,126179,110448
7239,559,203,126220,110463
7241,558,203,126260,110476
7244,558,203,126292,110489
7246,557,203,126319,110504
7249,556,203,126362,110518
7251,555,203,126400,110533
7254,554,203,126444,110546
7257,551,203,126480,110556
7259,551,203,126523,110568
7262,550,203,126559,110581
7264,550,203,126588,110593
7267,550,203,126636,110612
7269,549,203,126661,110618
7271,549,203,126692,110633
7274,549,203,126729,110645
7276,549,203,126764,110647
7279,549,203,126794,110668
7281,550,203,126825,110677
7284,550,203,126866,110693
7286,551,203,126892,110700
7289,551,203,126909,110709
7291,552,203,126951,110717
7293,552,203,126966,110729
7297,553,203,126990,110740
7299,553,203,127026,110745
7302,553,203,127043,110761
7304,553,203,127065,110764
7307,551,203,127092,110772
7309,550,203,127119,110778
7311,550,203,127132,110785
7314,550,203,127150,110790
7316,550,203,127170,110803
7319,550,203,127191,110805
7321,550,203,127210,110817
7324,550,203,127220,110817
7326,549,203,127234,110819
7329,547,203,127257,110833
7331,546,203,127265,110841
7333,545,203,127282,110836
7336,544,203,127301,110844
7339,543,203,127304,110852
7342,544,203,127325,110850
7344,543,203,127337,110862
7347,542,203,127351,110868
7349,541,203,127363,110872
7351,541,203,127381,110866
7354,542,203,127381,110877
7356,541,203,127404,110890
7359,541,203,127417,110888
7361,541,203,127428,110893
7364,541,203,127436,110896
7366,541,204,127454,110898
7369,541,203,127463,110912
7371,540,204,127476,110904
7373,540,204,127488,110921
7376,539,204,127510,110925
7378,539,203,127512,110928
7382,539,204,127532,110929
7384,539,204,127543,110940
7387,539,204,127560,110942
7389,540,204,127577,110945
7391,541,204,127582,110943
7394,541,204,127594,110951
7396,541,204,127614,110954
7399,542,204,127616,110964
7401,542,204,127642,110962
7404,542,204,127649,110964
7406,541,204,127661,110971
7409,541,204,127681,110975
7411,541,204,127698,110965
7413,541,204,127699,110981
7416,540,204,127709,111000
7418,539,204,127732,110987
7421,539,204,127737,110994
7424,539,204,127752,111001
7427,539,204,127767,111001
7429,538,204,127788,111014
7431,538,204,127788,111011
7434,537,204,127786,111025
7436,537,204,127809,111025
7439,537,204,127815,111023
7441,536,204,127831,111031
7444,537,204,127839,111032
7446,537,204,127853,111032
7449,538,204,127863,111032
7451,537,204,127879,111043
7453,537,204,127891,111040
7456,536,204,127901,111060
7458,536,204,127915,111062
7461,536,204,127927,111056
7463,536,204,127934,111063
7467,536,204,127951,111087
7469,535,204,127952,111068
7471,534,204,127952,111079
7474,534,204,127975,111088
7476,534,204,127981,111088
7479,533,204,127986,111078
7481,533,204,127986,111083
7484,533,204,128005,111087
7486,533,204,128023,111095
7489,532,204,128034,111097
7491,532,204,128057,111096
7493,533,204,128061,111096
7496,534,204,128086,111103
7498,535,204,128086,111109
7501,536,204,128089,111115
7503,537,204,128110,111118
7506,537,204,128116,111121
7508,537,205,128116,111123
7511,536,205,128138,111134
7514,535,204,128149,111132
7516,534,205,128159,111132
7519,533,204,128173,111142
7521,534,205,128173,111146
7524,535,205,128183,111152
7526,535,204,128204,111152
7529,535,204,128222,111148
7531,534,204,128222,111165
7533,533,205,128229,111167
7536,533,205,128250,111167
7538,531,205,128267,111170
7541,530,205,128278,111176
7543,530,205,128278,111182
7546,529,205,128291,111188
7548,529,205,128318,111188
7550,528,205,128333,111193
7554,526,205,128333,111204
7556,526,205,128336,111207
7559,526,205,128360,111211
7561,526,205,128371,111217
7564,526,205,128386,111217
7566,526,205,128380,111217
7569,526,205,128404,111217
7571,523,205,128404,111227
7573,522,205,128415,111230
7576,522,205,128405,111230
7578,522,205,128443,111232
7581,522,205,128443,111238
7583,521,205,128463,111238
7586,520,205,128446,111253
7588,519,205,128493,111258
7590,518,205,128493,111255
7593,518,205,128510,111255
7596,518,205,128531,111258
7599,518,205,128531,111264
7601,519,205,128533,111271
7604,519,205,128528,111271
7606,518,205,128575,111272
7609,518,205,128575,111278
7611,518,205,128582,111282
7613,518,205,128582,111292
7616,517,205,128608,111292
7618,517,205,128623,111299
7621,519,205,128623,111300
7623,519,205,128634,111306
7626,519,205,128659,111306
7628,518,205,128668,111309
7630,515,205,128668,111310
7633,512,205,128665,111319
7635,509,205,128670,111319
7639,505,205,128702,111321
7641,501,205,128699,111325
7644,496,205,128699,111329
7646,494,205,128707,111332
7649,494,205,128731,111332
7651,493,205,128741,111338
7653,498,205,128741,111337
7656,504,205,128744,111338
7658,515,205,128749,111345
7661,533,205,128764,111353
7663,565,205,128760,111348
7666,595,206,128771,111348
7668,624,206,128784,111358
7670,649,206,128784,111358
7673,660,206,128795,111361
7675,654,206,128797,111361
7678,636,206,128841,111369
7681,617,206,128847,111376
7684,593,206,128847,111376
7686,558,206,128836,111376
7689,547,206,128839,111373
7691,542,206,128837,111375
7693,539,206,128847,111375
7696,533,206,128873,111381
7698,518,206,128878,111381
7701,508,206,128858,111377
7703,502,206,128876,111389
7706,498,206,128877,111385
7708,496,206,128890,111385
7710,496,206,128878,111387
7713,498,206,128883,111394
7715,500,206,128899,111388
7718,502,206,128897,111393
7720,504,206,128903,111392
7724,505,206,128917,111395
7726,505,206,128902,111397
7729,505,206,128916,111401
7731,504,206,128922,111408
7733,503,206,128918,111403
7736,503,206,128926,111403
7738,503,206,128926,111400
7741,503,206,128925,111403
7743,503,206,128927,111398
7746,503,206,128929,111405
7748,503,206,128939,111405
7750,503,206,128936,111416
7753,504,206,128941,111404
7755,506,206,128939,111402
7758,508,206,128932,111405
7760,510,206,128939,111405
7763,511,207,128946,111407
7766,514,207,128934,111409
7769,515,207,128935,111413
7771,517,207,128947,111407
7773,518,207,128950,111404
7776,521,207,128945,111401
7778,521,207,128955,111409
7781,522,207,128953,111411
7783,522,207,128942,111401
7786,522,207,128950,111406
7788,521,207,128936,111407
7790,521,207,128940,111402
7793,521,207,128943,111407
7795,521,207,128950,111406
7798,521,207,128936,111416
7800,523,207,128948,111412
7803,524,207,128952,111414
7805,525,207,128946,111403
7809,526,207,128945,111404
7811,527,207,128954,111415
7813,527,207,128958,111418
7816,527,207,128964,111414
7818,528,207,128959,111424
7821,528,207,128963,111424
7823,529,207,128977,111416
7826,529,208,128976,111418
7828,530,207,128981,111419
7830,531,208,128993,111429
7833,531,208,128987,111430
7835,530,208,128986,111429
7838,531,208,128999,111428
7840,532,208,128995,111433
7843,533,208,129010,111432
7845,534,208,129008,111435
7848,534,208,129012,111430
7851,534,208,129014,111434
7853,534,208,129021,111435
7856,534,208,129020,111437
7858,535,208,129019,111436
7861,535,208,129020,111435
7863,535,208,129024,111432
7866,536,208,129014,111425
7868,537,208,129001,111434
7870,539,208,128983,111420
7873,540,208,128957,111405
7875,541,208,128919,111387
7878,542,208,128869,111375
7880,542,208,128819,111345
7883,542,208,128741,111308
7885,543,208,128647,111282
7888,543,209,128541,111229
7890,544,209,128423,111168
7892,545,209,128267,111122
7896,545,208,128096,111064
7898,545,209,127923,110992
7901,545,209,127702,110914
7903,546,209,127497,110842
7906,547,209,127271,110753
7908,548,209,127043,110664
7910,550,209,126823,110585
7913,551,209,126610,110499
7915,552,209,126390,110427
7918,552,209,126178,110342
7920,552,209,125967,110254
7923,552,209,125967,110164
7925,552,209,125528,110083
7928,552,209,125333,110012
7930,551,209,125136,109933
7932,551,209,124932,109865
7936,550,209,124744,109796
7938,550,209,124564,109737
7941,550,209,124390,109676
7943,549,209,124250,109635
7946,548,209,124119,109612
7948,544,209,124021,109564
7950,542,209,124021,109541
7953,538,209,123859,109542
7955,535,209,123792,109542
7958,529,209,123757,109490
7960,525,210,123713,109477
7963,523,209,123713,109472
7965,518,209,123655,109460
7968,513,209,123631,109462
7970,509,209,123630,109459
7972,506,210,123614,109459
7975,500,210,123619,109464
7977,497,210,123619,109474
7981,494,210,123618,109470
7983,491,210,123640,109482
7986,489,210,123651,109496
7988,484,210,123651,109495
7990,481,210,123663,109518
7993,479,210,123712,109519
7995,477,210,123735,109519
7998,474,210,123778,109551
8000,472,210,123778,109564
8003,472,210,123804,109587
8005,471,210,123877,109587
8008,470,210,123925,109603
8010,468,210,123925,109635
8012,467,210,123965,109661
8015,466,210,124058,109679
8017,465,210,124113,109679
8020,464,210,124165,109711
8023,463,210,124165,109741
8026,463,210,124224,109762
8028,463,210,124322,109762
8030,463,210,124388,109779
8033,463,210,124388,109827
8035,464,210,124442,109845
8038,464,210,124550,109845
8040,465,210,124609,109864
8043,465,210,124664,109902
8045,466,210,124664,109929
8048,466,210,124721,109942
8050,467,210,124824,109942
8052,467,210,124878,109963
8055,468,210,124918,109999
8057,469,210,124971,109999
8060,471,210,124971,110028
8062,471,210,125023,110028
8066,472,210,125095,110049
8068,471,210,125095,110073
8070,471,210,125121,110071
8073,471,210,125148,110071
8075,470,210,125206,110085
8078,470,210,125237,110099
8080,470,210,125248,110099
8083,471,210,125272,110111
8085,471,210,125272,110125
8088,472,210,125295,110125
8090,472,210,125295,110131
8092,471,210,125282,110131
8095,471,210,125326,110140
8097,469,210,125326,110137
8100,470,210,125338,110137
8102,470,210,125332,110138
8105,471,210,125332,110144
8108,471,210,125351,110144
8110,471,210,125382,110154
8113,469,210,125382,110158
8115,469,210,125390,110161
8118,470,210,125415,110161
8120,470,210,125424,110172
8123,470,210,125424,110174
8125,469,210,125445,110189
8128,470,210,125469,110189
8130,470,210,125508,110191
8132,470,210,125508,110199
8135,470,210,125522,110213
8137,470,210,125551,110218
8140,470,210,125575,110218
8142,470,210,125575,110242
8145,470,210,125603,110242
8147,470,210,125641,110246
8150,470,210,125641,110256
8153,470,210,125655,110268
8155,471,210,125676,110268
8158,471,210,125705,110267
8160,471,210,125734,110277
8163,471,210,125734,110278
8165,470,210,125729,110278
8168,470,210,125747,110286
8170,470,210,125746,110286
8172,469,210,125761,110290
8175,468,210,125775,110290
8177,467,210,125796,110290
8180,467,210,125775,110291
8182,466,210,125799,110296
8185,466,210,125799,110302
8187,464,210,125791,110303
8189,463,210,125780,110303
8193,463,210,125793,110300
8195,462,210,125797,110293
8198,460,209,125793,110292
8200,460,210,125781,110284
8203,460,209,125758,110291
8205,460,209,125757,110283
8208,460,209,125753,110277
8210,460,209,125742,110268
8212,459,209,125727,110260
8215,458,209,125712,110263
8217,458,209,125699,110246
8220,457,209,125684,110246
8222,457,209,125663,110238
8225,457,209,125656,110230
8227,457,209,125642,110224
8229,456,209,125610,110216
8232,455,209,125608,110213
8235,455,209,125598,110209
8238,454,209,125581,110202
8240,454,209,125564,110194
8243,455,209,125547,110186
8245,455,209,125536,110185
8248,455,209,125532,110180
8250,456,209,125510,110175
8252,456,209,125499,110172
8255,457,209,125501,110167
8257,458,209,125490,110165
8260,459,209,125489,110173
8262,460,209,125498,110167
8265,461,209,125485,110172
8267,461,209,125479,110165
8269,460,209,125487,110166
8272,460,209,125487,110166
8274,460,209,125500,110174
8278,460,209,125496,110177
8280,461,209,125505,110179
8283,461,209,125516,110184
8285,462,209,125522,110183
8288,463,209,125537,110189
8290,463,209,125560,110200
8292,463,209,125564,110205
8295,463,208,125599,110210
8297,463,208,125605,110219
8300,463,208,125619,110224
8302,463,208,125654,110243
8305,462,208,125671,110245
8307,463,208,125702,110253
8309,463,208,125722,110268
8312,462,208,125752,110280
8314,461,208,125775,110292
8317,461,208,125814,110301
8320,462,208,125839,110310
8323,462,208,125859,110314
8325,462,208,125893,110331
8328,462,208,125929,110343
8330,461,208,125965,110355
8332,461,208,125995,110369
8335,460,208,126028,110380
8337,459,208,126064,110396
8340,459,208,126103,110401
8342,459,208,126129,110420
8345,459,208,126164,110425
8347,458,208,126194,110444
8349,458,208,126243,110455
8352,458,208,126266,110444
8354,458,208,126301,110480
8357,458,208,126330,110485
8359,458,208,126372,110503
8363,458,207,126402,110510
8365,459,207,126427,110528
8368,459,207,126472,110534
8370,459,207,126504,110553
8372,459,207,126535,110565
8375,458,207,126568,110565
8377,458,207,126598,110580
8380,458,207,126627,110580
8382,457,207,126659,110604
8385,456,207,126659,110611
8387,456,207,126712,110626
8389,456,207,126745,110636
8392,455,207,126777,110645
8394,454,207,126813,110646
8397,454,207,126829,110655
8399,453,207,126858,110666
8402,452,207,126890,110686
8404,451,206,126905,110689
8408,451,207,126939,110698
8410,451,206,126957,110694
8412,451,206,126985,110707
8415,451,206,127010,110720
8417,452,206,127022,110730
8420,452,206,127048,110736
8422,452,206,127063,110743
8425,452,206,127091,110768
8427,451,206,127112,110761
8429,450,206,127112,110765
8432,450,206,127147,110793
8434,450,206,127173,110779
8437,449,206,127182,110789
8439,450,206,127200,110785
8442,450,205,127200,110799
8444,449,205,127236,110798
8448,448,206,127254,110811
8450,448,205,127269,110808
8452,448,205,127281,110808
8455,448,205,127304,110828
8457,449,205,127304,110833
8460,450,205,127330,110843
8462,450,205,127347,110845
8465,450,205,127363,110852
8467,450,205,127363,110845
8469,449,205,127379,110855
8472,449,205,127416,110862
8474,449,205,127429,110862
8477,449,205,127439,110875
8479,449,205,127439,110881
8482,450,205,127460,110892
8484,451,204,127482,110892
8487,450,204,127501,110892
8489,449,204,127501,110897
8492,449,204,127519,110903
8495,448,204,127539,110903
8497,447,204,127558,110903
8500,446,204,127572,110914
8502,446,204,127572,110930
8505,446,204,127587,110934
8507,446,204,127613,110934
8509,445,204,127634,110936
8512,445,204,127634,110945
8514,446,203,127643,110945
8517,446,204,127661,110945
8519,447,204,127672,110951
8522,447,203,127687,110955
8524,447,203,127687,110959
8527,448,203,127701,110964
8529,449,203,127717,110964
8531,449,203,127729,110970
8535,450,203,127739,110978
8537,451,203,127747,110978
8540,453,203,127747,110980
8542,454,203,127753,110980
8545,454,203,127776,110992
8547,454,203,127776,110991
8549,453,203,127795,110993
8552,453,203,127786,110993
8554,452,203,127818,111005
8557,452,203,127837,111008
8559,452,203,127841,111008
8562,453,202,127853,111015
8564,454,202,127853,111023
8567,455,203,127871,111023
8569,456,202,127871,111025
8571,456,202,127883,111025
8574,457,202,127894,111025
8577,456,202,127908,111031
8580,457,202,127908,111034
8582,457,202,127902,111034
8585,458,202,127902,111043
8587,457,202,127937,111040
8589,457,202,127942,111040
8592,458,202,127964,111045
8594,458,202,127968,111057
8597,459,202,127968,111058
8599,460,202,127972,111054
8602,460,202,127970,111054
8604,460,201,128004,111061
8607,459,201,128004,111070
8609,459,201,128006,111071
8611,460,201,128013,111071
8614,460,201,128039,111079
8616,460,201,128039,111080
8620,461,201,128047,111086
8622,463,201,128051,111089
8625,466,201,128067,111089
8627,467,201,128067,111100
8629,469,201,128090,111100
8632,470,201,128126,111097
8634,471,201,128126,111096
8637,471,201,128122,111103
8639,472,201,128128,111104
8642,473,201,128155,111109
8644,473,201,128136,111112
8647,473,201,128151,111125
8649,473,200,128174,111125
8651,473,201,128174,111127
8654,473,200,128191,111127
8656,473,200,128188,111139
8659,472,200,128213,111134
8662,472,200,128237,111148
8665,472,200,128237,111146
8667,471,200,128239,111143
8669,470,200,128247,111152
8672,470,200,128263,111162
8674,469,200,128281,111161
8677,469,200,128299,111165
8679,471,200,128290,111168
8682,471,200,128299,111173
8684,471,199,128311,111169
8687,470,200,128327,111175
8689,469,200,128337,111179
8691,469,199,128354,111179
8694,468,199,128350,111192
8696,469,200,128372,111192
8699,469,199,128381,111196
8701,471,199,128390,111202
8705,472,199,128402,111204
8707,472,199,128413,111206
8709,472,199,128422,111214
8712,472,199,128436,111219
8714,473,199,128456,111223
8717,474,199,128454,111233
8719,475,199,128472,111230
8722,477,199,128489,111232
8724,479,199,128499,111234
8727,480,199,128499,111236
8729,482,199,128507,111236
8731,483,199,128516,111243
8734,487,199,128537,111246
8736,488,199,128545,111255
8739,488,199,128555,111259
8741,490,198,128566,111267
8744,490,199,128580,111267
8747,488,199,128591,111267
8749,484,198,128595,111279
8752,481,198,128612,111276
8754,477,198,128620,111280
8757,474,198,128632,111289
8759,474,198,128638,111290
8762,475,198,128645,111303
8764,476,198,128659,111299
8767,478,198,128679,111297
8769,483,198,128678,111296
8771,494,198,128690,111304
8774,520,198,128701,111308
8776,545,198,128708,111312
8779,573,198,128715,111311
8781,606,198,128728,111320
8784,627,198,128741,111316
8786,634,198,128737,111328
8788,623,198,128743,111331
8792,607,198,128761,111325
8794,582,198,128764,111329
8797,541,198,128781,111331
8799,525,198,128778,111336
8802,519,198,128790,111337
8804,516,198,128787,111341
8807,516,198,128804,111342
8809,512,197,128813,111342
8811,505,197,128813,111350
8814,492,197,128822,111359
8816,488,197,128836,111364
8819,486,197,128837,111356
8821,485,197,128851,111366
8824,486,197,128852,111364
8826,489,197,128856,111368
8828,492,197,128875,111369
8832,494,197,128873,111376
8834,497,197,128878,111375
8837,499,197,128883,111372
8839,502,197,128888,111383
8842,504,197,128892,111376
8844,507,197,128893,111381
8847,512,197,128903,111381
8849,520,197,128904,111379
8851,524,198,128917,111389
8854,527,198,128929,111393
8856,533,198,128913,111388
8859,537,198,128929,111388
8861,545,198,128933,111394
8864,550,198,128934,111393
8866,554,198,128949,111385
8868,560,198,128947,111391
8871,567,198,128949,111390
8873,571,198,128946,111385
8877,575,198,128957,111395
8879,579,198,128960,111397
8882,582,199,128963,111399
8884,588,199,128968,111398
8887,591,199,128979,111410
8889,595,199,128975,111400
8891,600,199,128980,111405
8894,603,199,128979,111403
8896,607,199,128984,111408
8899,609,199,128986,111408
8901,612,199,128978,111411
8904,614,199,128987,111425
8906,616,199,128995,111406
8908,618,199,128995,111405
8911,620,199,128996,111430
8913,622,200,129002,111413
8916,624,200,128996,111411
8919,625,200,128997,111414
8922,626,200,128997,111409
8924,627,200,128995,111410
8927,627,200,129009,111419
8929,627,200,129012,111409
8931,628,200,129012,111409
8934,629,200,129013,111414
8936,629,200,129013,111414
8939,630,200,129014,111418
8941,630,200,129018,111418
8944,630,200,129011,111430
8946,630,200,129024,111418
8948,630,200,129024,111418
8951,630,200,129009,111418
8953,630,200,129014,111418
8956,629,200,129015,111421
8958,628,200,129015,111418
8962,628,200,129010,111416
8964,628,201,129006,111416
8967,627,200,128999,111412
8969,626,200,128999,111412
8971,625,200,128999,111407
8974,624,200,128973,111404
8976,624,201,128968,111404
8979,623,200,128948,111389
8981,622,200,128948,111383
8984,622,201,128934,111364
8986,622,201,128856,111364
8988,621,201,128808,111350
8991,621,201,128808,111304
8993,621,201,128735,111269
8996,621,201,128560,111233
8998,621,201,128448,111233
9001,621,201,128318,111182
9004,621,201,128318,111070
9007,621,201,128162,111004
9009,622,201,127779,111004
9011,623,201,127575,110923
9014,622,201,127346,110760
9016,622,201,127346,110677
9019,622,201,126885,110596
9021,623,201,126651,110596
9024,622,201,126440,110511
9026,621,201,126440,110338
9028,621,201,126213,110243
9031,622,201,125719,110243
9033,622,201,125524,110148
9036,621,201,125524,109976
9038,620,201,125298,109891
9041,619,201,124823,109809
9043,618,201,124642,109809
9047,617,201,124437,109730
9049,615,201,124437,109615
9051,614,201,124260,109560
9054,612,201,123973,109560
9056,610,201,123862,109514
9059,607,201,123862,109456
9061,604,201,123765,109433
9064,602,201,123613,109433
9066,599,201,123562,109413
9068,593,201,123562,109384
9071,588,201,123514,109386
9073,586,201,123477,109386
9076,582,202,123405,109368
9078,579,201,123398,109363
9081,572,202,123398,109356
9083,568,201,123379,109359
9086,564,201,123366,109359
9089,560,201,123369,109354
9091,554,201,123369,109359
9094,550,201,123372,109369
9096,547,202,123375,109377
9099,544,201,123384,109374
9101,542,202,123399,109394
9104,540,202,123422,109394
9106,537,201,123484,109394
9108,535,202,123484,109428
9111,534,202,123487,109438
9113,532,202,123516,109438
9116,532,202,123590,109451
9118,530,202,123635,109473
9121,529,202,123635,109481
9123,526,202,123664,109504
9126,526,202,123706,109518
9128,525,202,123744,109532
9131,524,202,123800,109578
9134,524,202,123848,109594
9136,524,202,123900,109594
9139,524,202,123964,109624
9141,524,202,124003,109643
9144,523,202,124076,109679
9146,523,202,124130,109697
9148,522,202,124180,109697
9151,522,202,124228,109720
9153,521,202,124300,109734
9156,521,202,124348,109761
9158,521,202,124405,109776
9161,521,202,124434,109800
9163,521,202,124489,109823
9166,521,202,124542,109838
9168,521,202,124588,109848
9170,521,202,124630,109862
9174,521,202,124677,109884
9176,521,202,124707,109890
9179,520,202,124755,109906
9181,520,202,124784,109921
9184,520,202,124809,109923
9186,520,202,124832,109937
9188,520,202,124840,109944
9191,519,202,124878,109947
9193,519,202,124887,109951
9196,518,202,124907,109960
9198,518,202,124915,109960
9201,519,202,124924,109972
9203,519,202,124934,109965
9206,519,202,124946,109960
9208,520,202,124946,109974
9210,520,202,124956,109980
9213,521,202,124955,109979
9216,521,202,124975,109974
9219,522,202,124978,109979
9221,523,202,124986,109988
9224,523,202,124979,109988
9226,523,202,124995,109990
9228,523,201,125008,109996
9231,523,202,125021,110003
9233,523,202,125009,110004
9236,523,202,125037,110002
9238,524,202,125043,110011
9241,524,202,125066,110011
9243,524,202,125073,110017
9246,524,202,125080,110025
9248,524,202,125105,110026
9250,524,202,125118,110037
9253,524,202,125124,110039
9255,524,202,125144,110045
9259,523,202,125143,110043
9261,523,202,125157,110049
9264,522,202,125173,110053
9266,521,202,125173,110057
9268,520,201,125178,110051
9271,520,202,125174,110054
9273,519,202,125191,110053
9276,518,201,125187,110054
9278,518,202,125193,110057
9281,518,202,125197,110059
9283,519,202,125182,110056
9286,519,202,125179,110050
9288,519,202,125178,110057
9290,519,202,125179,110049
9293,519,202,125163,110036
9295,518,202,125162,110041
9298,518,202,125139,110033
9300,518,202,125132,110029
9304,518,202,125128,110023
9306,518,202,125110,110018
9308,518,202,125090,110016
9311,518,202,125080,110002
9313,518,202,125060,109993
9316,517,202,125042,109998
9318,517,202,125028,109987
9321,518,202,124999,109973
9323,518,202,124981,109969
9326,518,202,124958,109953
9328,518,202,124959,109950
9330,517,202,124929,109936
9333,517,202,124910,109929
9335,517,202,124893,109921
9338,517,202,124868,109914
9340,517,202,124852,109904
9344,517,202,124838,109904
9346,517,202,124823,109900
9348,517,202,124823,109883
9351,517,202,124797,109872
9353,517,202,124776,109876
9356,518,202,124764,109876
9358,519,202,124769,109875
9361,518,202,124769,109869
9363,518,202,124754,109873
9366,518,202,124751,109866
9368,516,202,124747,109865
9370,516,202,124744,109866
9373,515,202,124750,109868
9375,515,202,124749,109872
9378,515,202,124761,109876
9380,515,202,124768,109880
9383,515,202,124768,109881
9385,514,202,124788,109888
9388,514,202,124804,109893
9391,514,202,124810,109894
9393,513,203,124832,109906
9396,513,202,124847,109919
9398,513,203,124876,109910
9401,513,202,124876,109923
9403,513,202,124908,109935
9406,512,202,124932,109944
9408,511,202,124968,109956
9410,512,202,124990,109956
9413,512,202,125012,109972
9415,512,202,125053,109987
9418,513,202,125085,110003
9420,513,202,125107,110012
9423,513,203,125154,110050
9425,513,203,125181,110039
9427,512,203,125181,110057
9431,512,203,125255,110076
9433,512,202,125285,110076
9436,512,203,125339,110100
9438,512,203,125339,110110
9441,512,203,125368,110122
9443,512,202,125451,110122
9446,512,203,125487,110136
9448,512,203,125525,110172
9450,512,203,125525,110180
9453,511,202,125608,110197
9455,510,202,125648,110197
9458,510,203,125692,110218
9460,509,203,125692,110230
9463,509,203,125723,110248
9465,509,203,125797,110248
9467,508,203,125845,110257
9470,508,203,125845,110288
9473,508,203,125877,110306
9476,508,203,125950,110315
9478,508,203,125982,110328
9481,509,203,126022,110337
9483,509,203,126055,110337
9486,508,203,126092,110352
9488,509,203,126092,110374
9490,509,203,126124,110387
9493,508,203,126186,110401
9495,507,203,126215,110401
9498,507,203,126238,110410
9500,507,203,126238,110428
9503,507,203,126277,110437
9505,507,203,126315,110447
9507,507,203,126315,110450
9510,507,203,126364,110450
9512,507,203,126391,110460
9516,507,203,126391,110476
9518,507,203,126406,110488
9521,507,203,126417,110487
9523,507,203,126465,110487
9526,506,203,126485,110499
9528,505,203,126485,110504
9530,504,203,126502,110514
9533,504,203,126530,110514
9535,504,203,126556,110518
9538,503,203,126556,110527
9540,503,203,126557,110530
9543,503,203,126543,110530
9545,502,203,126596,110533
9547,502,203,126602,110539
9550,502,203,126602,110547
9552,502,203,126619,110554
9555,502,203,126619,110554
9558,502,203,126659,110562
9561,502,203,126659,110571
9563,503,203,126672,110572
9566,503,203,126673,110572
9568,503,203,126698,110570
9570,503,203,126698,110574
9573,502,203,126704,110584
9575,503,203,126719,110584
9578,504,203,126731,110589
9580,504,203,126754,110591
9583,504,203,126754,110597
9585,504,203,126776,110597
9587,503,203,126776,110604
9590,502,203,126781,110605
9592,502,203,126799,110610
9595,502,203,126802,110610
9597,502,203,126819,110621
9601,502,204,126819,110624
9603,502,204,126826,110636
9606,503,203,126842,110636
9608,503,203,126872,110628
9610,503,203,126872,110632
9613,503,204,126879,110638
9615,503,204,126886,110652
9618,503,204,126899,110649
9620,504,204,126902,110654
9623,504,204,126920,110654
9625,504,204,126928,110662
9627,504,204,126962,110665
9630,504,204,126964,110670
9632,503,204,126974,110670
9635,502,204,126979,110678
9637,502,204,127004,110682
9640,502,204,127012,110686
9643,501,204,127025,110685
9646,501,204,127024,110690
9648,501,204,127049,110702
9650,501,204,127045,110701
9653,501,204,127066,110707
9655,501,204,127085,110712
9658,500,204,127099,110713
9660,499,204,127107,110713
9663,498,204,127122,110721
9665,499,204,127118,110724
9667,498,204,127129,110727
9670,497,204,127153,110738
9672,498,204,127166,110744
9675,498,204,127179,110742
9677,498,204,127192,110747
9680,499,204,127206,110758
9682,499,204,127224,110751
9686,498,204,127219,110756
9688,497,204,127233,110769
9690,497,204,127253,110765
9693,497,204,127270,110768
9695,498,204,127270,110778
9698,498,204,127289,110788
9700,499,204,127307,110784
9703,499,204,127318,110789
9705,499,204,127326,110801
9707,499,204,127352,110791
9710,498,204,127353,110806
9712,497,204,127360,110807
9715,496,204,127379,110805
9717,496,204,127392,110817
9720,496,204,127407,110821
9722,497,204,127413,110817
9725,497,204,127416,110826
9728,498,204,127437,110826
9730,499,204,127451,110841
9733,499,204,127464,110838
9735,499,204,127478,110851
9738,499,204,127487,110842
9740,498,204,127500,110846
9743,497,204,127518,110849
9745,496,204,127520,110861
9747,496,204,127533,110871
9750,496,204,127549,110868
9752,495,204,127571,110888
9755,495,204,127571,110882
9757,495,204,127577,110885
9760,496,204,127599,110893
9762,496,204,127604,110892
9765,497,204,127611,110891
9767,497,204,127626,110899
9769,496,205,127645,110909
9773,496,204,127666,110912
9775,496,205,127673,110915
9778,495,205,127683,110913
9780,495,205,127687,110924
9783,496,205,127715,110922
9785,496,205,127717,110931
9787,496,204,127734,110932
9790,496,204,127750,110950
9792,496,204,127762,110942
9795,496,205,127780,110949
9797,496,205,127791,110957
9800,497,205,127807,110958
9802,496,205,127808,110968
9805,497,205,127826,110965
9807,497,205,127843,110946
9809,497,204,127857,110977
9812,496,205,127867,110982
9815,496,205,127880,110989
9818,496,205,127897,111000
9820,496,205,127912,111007
9823,496,205,127928,111003
9825,496,205,127945,111012
9827,494,205,127957,111010
9830,491,205,127974,111009
9832,486,205,127980,111022
9835,480,205,127998,111024
9837,478,205,128019,111027
9840,477,205,128027,111034
9842,475,205,128044,111040
9845,475,205,128060,111048
9847,481,205,128068,111045
9849,488,205,128090,111056
9852,494,205,128098,111051
9854,509,205,128114,111065
9858,550,205,128121,111066
9860,584,205,128138,111072
9863,609,205,128138,111082
9865,626,205,128156,111082
9867,629,206,128176,111085
9870,620,205,128194,111088
9872,598,206,128204,111091
9875,564,206,128212,111100
9877,547,206,128233,111102
9880,535,206,128233,111108
9882,527,206,128256,111107
9885,523,206,128266,111121
9887,518,206,128289,111115
9889,512,206,128289,111115
9892,495,206,128305,111125
9894,487,206,128307,111128
9897,483,206,128323,111127
9900,481,206,128329,111131
9903,481,206,128342,111153
9905,482,206,128361,111139
9907,484,206,128361,111142
9910,487,206,128372,111153
9912,489,206,128390,111153
9915,491,206,128400,111161
9917,491,206,128400,111162
9920,491,206,128414,111174
9922,491,206,128439,111174
9925,491,206,128444,111174
9927,491,206,128455,111182
9929,490,206,128455,111187
9932,489,206,128470,111174
9934,489,206,128477,111174
9937,489,206,128487,111190
9939,489,206,128487,111200
9943,490,206,128498,111203
9945,490,206,128508,111203
9947,490,206,128528,111201
9950,491,206,128529,111204
9952,491,206,128529,111211
9955,492,206,128537,111206
9957,492,206,128544,111221
9960,493,206,128564,111215
9962,493,206,128562,111215
9965,493,206,128567,111213
9967,494,206,128567,111209
9969,494,206,128568,111218
9972,494,206,128575,111223
9974,494,206,128589,111223
9977,494,206,128593,111232
9979,494,206,128593,111227
9982,494,206,128599,111226
9985,494,206,128608,111241
9987,494,206,128608,111233
9990,495,206,128618,111233
9992,495,206,128638,111236
9995,496,206,128638,111241
9997,496,206,128633,111244
10000,497,206,128636,111248
10002,497,206,128663,111248
10005,497,206,128661,111255
10007,498,206,128661,111263
10009,498,206,128676,111261
10012,498,206,128692,111261
10014,497,206,128710,111264
10017,497,207,128710,111266
10019,497,206,128715,111270
10022,497,206,128680,111275
10024,497,206,128732,111275
10027,498,206,128733,111274
10030,499,206,128733,111275
10032,500,207,128740,111277
10035,500,207,128740,111277
10037,501,207,128740,111288
10040,502,207,128751,111288
10042,502,207,128758,111286
10045,503,207,128758,111286
10047,503,207,128756,111290
10049,504,207,128768,111290
10052,504,207,128779,111290
10054,505,207,128779,111286
10057,505,207,128771,111290
10059,507,207,128777,111288
10062,509,207,128768,111288
10064,510,207,128768,111287
10066,511,207,128757,111287
10070,512,207,128723,111278
10072,513,207,128723,111272
10075,515,207,128698,111248
10077,515,207,128665,111228
10080,516,207,128552,111228
10082,517,207,128552,111170
10085,519,207,128486,111170
10087,519,207,128296,111135
10089,520,207,128296,111035
10092,521,207,128145,110975
10094,524,207,127983,110975
10097,525,208,127638,110909
10099,525,208,127417,110841
10102,526,208,127417,110758
10104,526,208,127182,110673
10106,526,208,126953,110584
10109,526,208,126722,110497
10112,526,208,126501,110316
10115,527,208,126245,110219
10117,527,208,126007,110120
10120,528,208,125774,110036
10122,528,208,125524,109930
10125,529,208,125278,109930
10127,529,208,125053,109842
10129,529,208,124834,109674
10132,529,208,124610,109674
10134,529,208,124387,109600
10137,528,208,124204,109542
10139,526,208,124028,109489
10142,524,208,123886,109450
10144,522,208,123774,109413
10146,520,208,123666,109381
10149,514,208,123585,109355
10151,511,208,123510,109336
10155,508,208,123456,109327
10157,506,208,123418,109308
10160,503,208,123379,109295
10162,497,208,123340,109279
10165,493,208,123294,109273
10167,490,208,123283,109273
10169,487,208,123262,109268
10172,481,208,123255,109263
10174,478,208,123232,109265
10177,476,208,123240,109268
10179,474,208,123235,109264
10182,472,208,123245,109269
10184,470,208,123255,109271
10186,469,208,123269,109282
10189,468,208,123276,109281
10191,467,209,123288,109293
10194,466,209,123311,109302
10196,466,209,123345,109317
10200,466,209,123366,109332
10202,466,209,123401,109337
10205,466,209,123432,109355
10207,466,209,123455,109372
10209,466,209,123493,109394
10212,466,209,123544,109409
10214,466,209,123583,109427
10217,467,209,123625,109442
10219,467,209,123679,109466
10222,468,209,123710,109485
10224,468,209,123764,109498
10226,469,209,123824,109521
10229,470,209,123865,109537
10231,471,209,123915,109564
10234,472,209,123967,109575
10236,474,209,124024,109607
10240,475,209,124077,109624
10242,475,209,124135,109647
10245,476,209,124177,109663
10247,477,209,124236,109687
10249,478,209,124283,109696
10252,479,209,124337,109719
10254,480,210,124379,109737
10257,481,209,124428,109747
10259,481,209,124473,109771
10262,482,209,124517,109787
10264,483,210,124549,109797
10266,484,210,124587,109811
10269,485,210,124626,109826
10271,486,210,124657,109836
10274,486,210,124692,109847
10276,486,210,124711,109858
10279,487,210,124753,109863
10281,488,210,124769,109879
10285,488,210,124788,109885
10287,489,210,124806,109892
10289,489,210,124836,109908
10292,490,210,124851,109914
10294,490,210,124869,109919
10297,491,210,124888,109923
10299,491,210,124911,109932
10302,492,210,124930,109936
10304,492,210,124952,109945
10306,493,210,124959,109948
10309,493,210,124984,109958
10311,493,210,125004,109959
10314,493,210,125032,109972
10316,493,210,125050,109973
10319,494,211,125071,109990
10321,494,211,125103,109992
10324,494,211,125128,110003
10327,495,211,125142,110013
10329,496,211,125170,110012
10332,496,211,125186,110024
10334,495,211,125206,110036
10337,495,211,125230,110044
10339,495,211,125247,110047
10342,495,211,125247,110051
10344,495,211,125279,110055
10346,495,211,125293,110058
10349,495,211,125304,110059
10351,495,211,125313,110061
10354,495,211,125319,110074
10356,495,211,125329,110065
10359,495,211,125329,110068
10361,494,211,125335,110074
10364,494,211,125336,110071
10366,494,211,125341,110067
10369,495,211,125333,110069
10372,495,211,125330,110072
10374,496,211,125334,110068
10377,496,211,125328,110084
10379,496,211,125325,110063
10382,496,211,125316,110080
10384,496,211,125306,110054
10386,496,211,125306,110043
10389,496,211,125278,110053
10391,496,212,125266,110053
10394,496,211,125265,110034
10396,496,212,125265,110025
10399,496,212,125242,110021
10401,496,212,125205,110011
10404,496,212,125186,110006
10406,496,212,125166,109995
10408,496,212,125145,109995
10412,496,212,125124,109968
10414,496,212,125124,109966
10417,497,212,125074,109959
10419,497,212,125048,109959
10422,497,212,125039,109942
10424,497,212,125039,109928
10426,497,212,125006,109925
10429,497,212,124963,109910
10431,497,212,124963,109902
10434,497,212,124937,109900
10436,498,212,124919,109900
10439,498,212,124901,109890
10441,499,212,124901,109888
10444,498,212,124897,109881
10446,498,212,124879,109881
10448,498,212,124883,109878
10451,498,212,124875,109883
10454,498,212,124868,109883
10457,499,212,124868,109880
10459,499,212,124871,109880
10462,499,212,124882,109882
10464,498,212,124882,109883
10466,498,212,124889,109891
10469,498,213,124913,109902
10471,498,213,124913,109909
10474,498,212,124940,109908
10476,499,213,124945,109908
10479,499,213,124980,109919
10481,499,213,124980,109935
10484,499,213,124986,109945
10486,499,213,125015,109945
10488,499,213,125068,109948
