TimeStamp,ECG Data,GSR Data,PPG_Red Data,PPG_IR Data
165707,444,146,128125,110354
165710,442,145,128141,110350
165712,441,145,128155,110351
165715,440,145,128157,110354
6,456,145,0,57531
8,445,145,57558,57531
11,427,144,90326,73943
13,399,144,90326,90289
16,372,144,106701,106698
18,332,144,123075,109623
21,301,144,125905,109623
23,234,143,125906,109633
26,204,143,125939,109646
28,180,143,125977,109670
30,153,142,126027,109687
33,134,142,126072,109687
35,89,142,126083,109702
38,74,142,126130,109711
40,61,141,126160,109717
44,50,141,126220,109735
46,38,141,126257,109751
48,26,141,126287,109765
51,10,140,126329,109780
53,6,140,126377,109788
56,4,140,126397,109807
58,3,139,126447,109816
61,2,139,126487,109831
63,1,139,126523,109842
66,1,139,126556,109852
68,0,138,126573,109863
70,0,138,126626,109872
73,0,138,126665,109890
75,0,138,126695,109898
78,0,137,126719,109912
80,0,137,126756,109918
83,0,137,126787,109931
86,0,136,126827,109937
88,0,136,126859,109951
91,0,136,126887,109966
93,0,136,126917,109970
96,0,136,126956,109981
98,0,136,126988,109993
101,0,135,127018,109995
103,0,135,127051,110009
106,3,135,127095,110023
108,15,135,127108,110033
110,20,135,127149,110045
113,28,135,127180,110054
115,34,135,127222,110059
118,43,134,127241,110067
120,49,134,127272,110079
123,56,134,127286,110093
125,62,134,127322,110106
128,68,133,127346,110105
131,76,133,127371,110111
133,81,133,127381,110125
136,89,133,127401,110126
138,96,133,127425,110126
141,106,133,127450,110132
143,115,133,127474,110140
146,126,132,127477,110149
148,136,132,127497,110151
150,144,132,127518,110157
153,152,132,127518,110156
155,164,132,127532,110163
158,175,132,127554,110158
160,183,132,127562,110174
163,193,132,127582,110174
165,205,132,127584,110175
167,215,132,127581,110183
171,228,132,127582,110176
173,234,131,127584,110183
176,242,131,127590,110178
178,249,131,127584,110182
181,259,131,127583,110173
183,267,131,127578,110175
186,277,131,127576,110171
188,286,131,127557,110167
190,294,131,127557,110169
193,303,131,127545,110174
195,309,131,127533,110170
198,313,131,127532,110162
200,321,131,127523,110141
203,328,131,127506,110156
205,337,131,127495,110151
207,343,130,127494,110120
210,347,130,127480,110140
212,352,130,127463,110139
216,359,131,127459,110143
218,362,130,127454,110143
221,366,130,127438,110136
223,375,130,127431,110133
226,379,130,127429,110126
228,392,131,127414,110132
230,401,130,127408,110128
233,409,130,127407,110124
235,417,130,127405,110120
238,423,130,127384,110119
240,434,130,127389,110117
243,439,130,127382,110114
245,446,130,127363,110108
247,451,130,127355,110108
250,461,130,127350,110104
252,465,130,127340,110092
256,470,130,127338,110094
258,476,130,127326,110097
261,481,130,127316,110097
263,487,130,127317,110097
266,489,130,127317,110084
268,493,130,127296,110083
270,495,130,127305,110082
273,499,130,127292,110083
275,502,130,127309,110090
278,504,130,127306,110098
280,507,130,127301,110087
283,508,130,127315,110087
285,512,130,127327,110093
287,514,130,127327,110104
290,517,130,127347,110093
292,520,130,127358,110093
295,526,130,127363,110115
297,528,130,127363,110111
301,532,130,127386,110118
303,535,130,127398,110117
306,537,130,127407,110117
308,542,130,127428,110125
310,544,130,127440,110129
313,546,130,127444,110130
315,552,130,127460,110136
318,555,130,127471,110151
320,564,130,127483,110143
323,568,130,127490,110155
325,575,130,127507,110155
327,579,130,127507,110158
330,586,131,127523,110162
332,590,130,127523,110160
335,594,131,127553,110168
337,598,131,127562,110168
340,602,131,127589,110177
343,606,131,127589,110180
346,607,130,127601,110190
348,608,130,127636,110188
350,609,131,127659,110202
353,611,131,127675,110209
355,614,131,127689,110209
358,616,131,127714,110214
360,618,131,127720,110214
363,620,131,127754,110231
365,621,131,127754,110229
367,621,131,127758,110239
370,623,131,127805,110241
372,624,131,127805,110250
375,625,131,127845,110259
377,627,131,127870,110259
380,628,131,127886,110268
382,629,131,127886,110273
386,629,131,127895,110272
388,629,131,127930,110272
390,628,131,127952,110285
393,628,131,127952,110294
395,629,131,127960,110295
398,631,130,127969,110300
400,631,130,127999,110300
403,631,131,128009,110307
405,632,131,128009,110312
407,632,131,128012,110308
410,632,130,128030,110308
412,632,130,128045,110309
415,634,131,128045,110318
417,635,130,128042,110317
420,636,131,128048,110311
422,636,131,128020,110311
425,637,131,128067,110322
428,638,130,128067,110327
430,638,130,128041,110325
433,639,131,128096,110325
435,639,131,128104,110336
438,641,131,128104,110339
440,641,130,128120,110339
443,642,130,128120,110340
445,642,131,128128,110340
447,643,130,128123,110347
450,646,131,128123,110349
452,646,131,128149,110349
455,647,131,128155,110349
457,648,131,128159,110353
460,650,131,128159,110355
462,650,131,128168,110354
465,650,131,128166,110354
467,650,131,128179,110363
470,650,130,128179,110352
473,650,131,128165,110352
475,650,131,128164,110357
478,650,131,128165,110356
480,651,131,128158,110352
483,654,131,128145,110352
485,655,131,128145,110352
487,658,131,128160,110352
490,659,131,128154,110351
492,660,131,128154,110352
495,660,131,128151,110352
497,658,131,128157,110354
500,657,131,128153,110354
502,656,131,128144,110352
505,655,131,128144,110355
507,654,131,128152,110360
509,653,131,128138,110360
513,652,130,128143,110351
515,652,131,128143,110353
518,652,131,128148,110348
520,651,131,128151,110359
523,650,131,128162,110354
525,648,130,128167,110355
527,647,130,128167,110355
530,645,130,128167,110353
532,642,130,128171,110360
535,639,130,128170,110360
537,638,130,128179,110362
540,636,130,128183,110362
542,633,130,128184,110358
545,632,130,128181,110364
547,631,130,128193,110365
549,631,130,128195,110368
552,631,130,128203,110364
555,632,130,128212,110364
558,632,130,128207,110366
560,632,130,128219,110365
563,632,130,128228,110370
565,631,130,128239,110373
567,629,130,128243,110378
570,625,130,128233,110386
572,620,130,128252,110386
575,613,130,128265,110386
577,611,130,128278,110394
580,610,130,128285,110391
582,609,130,128289,110392
585,610,130,128314,110397
587,615,130,128309,110398
589,620,130,128329,110401
592,628,130,128339,110399
594,639,130,128352,110410
598,661,130,128378,110416
600,691,130,128391,110422
603,732,130,128394,110428
605,763,130,128419,110430
607,775,130,128447,110442
610,760,130,128464,110450
612,740,130,128470,110447
615,714,130,128496,110456
617,690,130,128508,110463
620,664,130,128535,110469
622,651,130,128556,110474
625,643,130,128551,110475
627,640,130,128567,110477
629,634,130,128584,110481
632,621,130,128600,110487
634,613,130,128599,110494
637,608,130,128616,110496
640,606,130,128623,110494
643,605,130,128631,110502
645,607,130,128646,110495
647,610,130,128653,110504
650,613,130,128662,110510
652,615,130,128672,110507
655,617,130,128692,110521
657,618,130,128685,110517
660,619,130,128695,110519
662,619,130,128720,110525
665,619,130,128728,110530
667,619,130,128734,110533
669,617,130,128746,110539
672,617,130,128755,110543
674,617,130,128766,110538
677,617,130,128762,110543
679,617,130,128770,110548
683,616,130,128778,110549
685,615,130,128789,110557
687,616,130,128792,110558
690,616,130,128803,110560
692,616,130,128800,110557
695,615,130,128809,110557
697,616,130,128811,110563
700,617,130,128825,110562
702,619,130,128832,110562
705,620,130,128838,110567
707,621,130,128848,110572
709,622,130,128856,110571
712,622,130,128867,110575
714,621,130,128864,110574
717,621,130,128883,110581
719,622,130,128890,110585
722,623,130,128890,110585
724,623,130,128895,110592
727,622,130,128895,110588
730,622,130,128909,110588
732,622,130,128919,110593
735,623,129,128922,110593
737,622,129,128940,110596
740,621,130,128940,110595
742,620,129,128942,110596
745,619,130,128954,110602
747,618,130,128961,110603
749,618,129,128962,110610
752,620,130,128967,110608
754,621,130,128973,110604
757,621,129,128984,110609
759,622,130,128989,110605
762,623,130,128988,110605
764,623,130,128990,110613
766,623,130,128990,110608
770,623,130,129005,110609
772,623,130,129000,110609
775,624,130,129010,110618
777,625,130,129019,110614
780,626,130,129024,110616
782,629,130,129020,110619
785,630,130,129024,110619
787,631,130,129034,110626
789,631,130,129040,110623
792,631,130,129040,110628
794,631,130,129053,110626
797,631,130,129044,110638
799,634,130,129052,110633
802,635,129,129059,110643
804,638,130,129059,110636
806,640,130,129059,110636
809,642,130,129062,110639
812,644,130,129064,110639
815,648,130,129054,110642
817,648,130,129054,110634
820,648,130,129059,110635
822,648,130,129046,110634
825,647,130,129039,110634
827,646,130,129032,110623
829,645,130,129032,110621
832,645,130,128986,110609
834,646,130,128968,110609
837,645,130,128943,110605
839,645,130,128911,110574
842,645,130,128878,110574
844,643,130,128831,110542
846,642,130,128770,110542
849,640,130,128716,110499
851,639,130,128716,110476
855,639,130,128565,110476
857,638,130,128565,110424
860,638,130,128486,110400
862,639,130,128304,110400
865,639,130,128188,110368
867,638,130,128188,110281
869,637,130,128072,110240
872,635,130,127818,110240
874,633,130,127689,110198
877,630,130,127550,110160
879,626,130,127550,110056
882,623,130,127403,110005
884,621,130,127107,110005
886,618,130,126975,109961
889,613,130,126840,109863
891,610,130,126700,109863
894,603,130,126700,109766
897,601,130,126427,109766
900,595,130,126310,109677
902,592,130,126310,109642
905,590,129,126200,109606
907,589,130,125962,109606
909,587,130,125867,109569
912,583,130,125867,109500
914,581,129,125774,109470
917,580,130,125681,109470
919,578,130,125518,109443
922,577,129,125440,109424
924,574,130,125440,109385
926,572,130,125365,109364
929,572,130,125244,109364
931,571,129,125244,109337
934,571,129,125196,109322
936,571,129,125150,109315
940,572,130,125076,109315
942,573,130,125076,109308
945,576,130,125050,109305
947,576,130,125019,109305
949,577,130,125007,109306
952,578,130,125007,109311
954,578,130,125007,109310
957,578,130,124998,109310
959,580,130,124998,109328
962,582,130,125016,109328
964,583,130,125036,109327
966,585,130,125036,109336
969,587,130,125040,109336
971,589,130,125050,109355
974,589,130,125071,109362
976,591,130,125084,109373
979,592,130,125101,109373
982,596,130,125122,109388
985,598,130,125151,109387
987,600,130,125198,109401
989,601,130,125198,109418
992,601,130,125219,109418
994,603,130,125239,109430
997,605,130,125271,109440
999,607,130,125286,109452
1002,609,130,125331,109467
1004,609,130,125369,109478
1006,608,130,125388,109478
1009,607,130,125415,109489
1011,607,130,125456,109499
1014,606,130,125473,109508
1016,605,130,125509,109514
1019,604,130,125545,109524
1021,604,130,125563,109546
1025,603,130,125609,109551
1027,602,130,125638,109562
1029,602,130,125666,109567
1032,601,130,125697,109585
1034,599,130,125739,109593
1037,597,130,125777,109609
1039,595,130,125823,109623
1042,593,130,125865,109637
1044,592,130,125903,109653
1046,590,130,125957,109668
1049,588,130,126018,109686
1051,586,130,126059,109695
1054,581,130,126081,109706
1056,579,130,126119,109717
1059,576,130,126146,109730
1061,574,130,126179,109731
1064,572,130,126191,109740
1067,569,130,126207,109742
1069,568,130,126231,109752
1072,567,130,126247,109756
1074,566,130,126272,109765
1077,565,130,126293,109766
1079,564,130,126299,109781
1082,562,130,126321,109786
1084,560,130,126354,109795
1086,558,130,126377,109797
1089,553,130,126394,109808
1091,550,130,126401,109814
1094,548,130,126430,109815
1096,547,130,126446,109827
1099,547,130,126472,109831
1101,547,130,126499,109830
1104,546,130,126500,109844
1106,546,130,126525,109849
1108,545,129,126535,109851
1112,543,130,126556,109854
1114,541,130,126558,109865
1117,541,130,126571,109868
1119,541,129,126576,109864
1122,541,130,126595,109863
1124,541,130,126612,109872
1126,542,130,126614,109873
1129,541,130,126623,109883
1131,540,130,126633,109880
1134,539,129,126647,109886
1136,539,130,126642,109891
1139,540,130,126657,109885
1141,541,130,126661,109886
1144,542,130,126653,109886
1146,542,129,126660,109899
1148,541,130,126662,109891
1152,541,130,126649,109883
1154,541,130,126653,109883
1157,542,130,126644,109891
1159,543,130,126641,109876
1162,542,130,126637,109874
1164,542,130,126622,109883
1166,542,130,126619,109870
1169,542,130,126608,109868
1171,541,130,126589,109864
1174,541,130,126587,109864
1176,541,130,126576,109857
1179,542,130,126562,109859
1181,543,130,126551,109858
1184,545,130,126543,109847
1186,546,130,126528,109851
1188,546,130,126515,109838
1191,548,130,126506,109833
1193,549,130,126483,109828
1197,549,130,126484,109824
1199,550,130,126460,109820
1202,550,130,126438,109820
1204,550,130,126437,109812
1206,549,130,126422,109805
1209,549,130,126416,109798
1211,549,130,126398,109800
1214,547,130,126386,109804
1216,547,130,126383,109795
1219,548,130,126382,109792
1221,549,130,126375,109790
1224,550,130,126375,109794
1226,551,130,126372,109798
1228,552,130,126375,109798
1231,554,130,126388,109798
1233,555,130,126390,109794
1236,555,130,126398,109801
1239,557,130,126410,109810
1242,559,130,126405,109810
1244,560,130,126436,109813
1246,560,130,126436,109813
1249,560,130,126452,109818
1251,559,130,126470,109821
1254,559,130,126479,109832
1256,558,130,126507,109834
1259,558,130,126523,109833
1261,559,130,126533,109846
1264,559,130,126549,109846
1266,557,130,126587,109853
1268,556,130,126601,109865
1271,555,130,126612,109871
1273,555,130,126628,109880
1276,555,130,126653,109882
1278,556,130,126674,109902
1282,556,130,126705,109898
1284,556,130,126711,109899
1286,556,130,126723,109899
1289,553,130,126752,109914
1291,552,130,126752,109917
1294,551,130,126768,109923
1296,551,130,126794,109923
1299,550,130,126807,109934
1301,550,130,126827,109933
1304,549,130,126827,109940
1306,548,130,126852,109940
1308,547,130,126868,109950
1311,544,130,126887,109961
1313,543,130,126887,109964
1316,541,130,126915,109963
1318,540,130,126937,109963
1321,539,130,126956,109974
1324,539,130,126973,109985
1326,538,130,126973,109993
1329,538,130,127009,109993
1331,539,130,127009,110001
1334,540,130,127037,110008
1336,542,130,127055,110017
1339,543,130,127083,110019
1341,544,130,127079,110019
1344,544,130,127108,110025
1346,546,130,127113,110025
1348,547,130,127136,110025
1351,547,130,127133,110041
1353,547,130,127133,110043
1356,547,130,127155,110043
1358,547,130,127171,110039
1361,547,130,127176,110053
1363,547,130,127176,110048
1366,547,130,127184,110052
1369,548,130,127188,110058
1371,548,130,127188,110058
1374,549,130,127214,110058
1376,550,130,127226,110063
1379,552,130,127226,110061
1381,553,130,127232,110065
1384,553,130,127235,110063
1386,553,131,127244,110063
1563,501,130,127794,110235
1565,499,130,127797,110242
1558,504,130,127749,110224
1561,503,130,127770,110230
1563,501,130,127794,110235
1565,499,130,127797,110242
1558,504,130,127749,110224
1561,503,130,127770,110230
1563,501,130,127794,110235
1565,499,130,127797,110242
1568,496,130,127825,110247
1570,495,130,127840,110252
1573,493,130,127868,110256
1575,492,130,127884,110260
1579,491,130,127888,110266
1581,491,130,127907,110278
1584,490,130,127927,110279
1586,490,130,127946,110284
1588,491,130,127970,110291
1591,492,130,127983,110293
1593,494,130,127992,110304
1596,495,130,128004,110311
1598,496,130,128023,110309
1601,498,130,128042,110309
1603,499,130,128058,110313
1605,501,130,128061,110318
1608,502,129,128070,110322
1610,501,130,128094,110322
1613,500,130,128102,110324
1615,498,130,128116,110329
1618,497,130,128122,110325
1620,497,129,128128,110336
1624,498,130,128159,110344
1626,499,130,128160,110349
1628,500,129,128172,110351
1631,499,130,128176,110361
1633,499,130,128197,110366
1636,500,130,128211,110366
1638,501,129,128231,110371
1641,503,130,128240,110379
1643,504,129,128241,110371
1645,506,129,128260,110383
1648,507,130,128261,110386
1650,507,129,128264,110388
1653,508,129,128281,110391
1655,508,129,128301,110396
1658,510,130,128308,110405
1660,511,129,128316,110407
1664,513,129,128327,110401
1666,514,130,128331,110410
1668,515,129,128349,110416
1671,515,129,128357,110414
1673,515,130,128370,110416
1676,515,130,128374,110421
1678,516,130,128377,110417
1681,517,130,128387,110428
1683,516,130,128404,110433
1685,515,129,128412,110408
1688,514,130,128420,110439
1690,511,129,128422,110431
1693,506,130,128426,110441
1695,501,130,128441,110435
1698,497,129,128450,110437
1700,491,130,128454,110443
1703,490,130,128464,110446
1705,490,130,128469,110448
1708,494,130,128479,110445
1711,497,130,128472,110447
1713,504,130,128486,110461
1716,509,130,128488,110453
1718,528,130,128501,110459
1721,540,130,128501,110464
1723,571,130,128516,110462
1725,601,130,128523,110462
1728,662,130,128542,110470
1730,681,130,128544,110467
1733,686,130,128551,110469
1735,677,130,128556,110474
1738,664,130,128560,110477
1740,612,130,128574,110476
1743,589,130,128586,110491
1745,567,130,128591,110486
1747,555,130,128594,110486
1751,547,130,128606,110487
1753,538,130,128610,110485
1756,534,130,128617,110497
1758,520,130,128626,110491
1761,513,130,128626,110505
1763,509,130,128633,110492
1765,508,130,128643,110492
1768,510,130,128646,110502
1770,511,130,128646,110504
1773,515,130,128657,110503
1775,519,130,128665,110503
1778,523,130,128661,110505
1780,524,130,128661,110510
1783,524,130,128680,110510
1785,524,130,128691,110513
1787,522,130,128695,110515
1790,521,130,128708,110513
1793,522,130,128713,110523
1796,523,130,128725,110522
1798,524,130,128722,110525
1801,524,130,128738,110525
1803,523,130,128743,110524
1805,523,130,128743,110534
1808,522,130,128755,110525
1810,523,130,128755,110535
1813,523,130,128765,110542
1815,524,130,128780,110542
1818,524,130,128787,110544
1820,524,130,128787,110540
1823,523,130,128785,110545
1825,523,130,128802,110545
1827,521,130,128818,110550
1830,520,130,128818,110546
1832,519,130,128818,110551
1836,520,130,128820,110556
1838,521,130,128836,110556
1841,522,130,128845,110557
1843,523,130,128845,110557
1845,523,130,128846,110559
1848,524,130,128866,110559
1850,524,130,128878,110566
1853,525,130,128878,110563
1855,525,130,128882,110565
1858,525,130,128890,110581
1860,526,130,128874,110581
1863,526,130,128917,110580
1865,525,130,128917,110579
1867,523,130,128918,110588
1870,523,130,128928,110588
1872,523,130,128929,110584
1875,523,130,128929,110590
1878,523,130,128947,110590
1881,523,130,128947,110601
1883,523,130,128959,110601
1885,523,130,128971,110599
1888,526,130,128971,110600
1890,526,130,128975,110603
1893,527,130,128993,110603
1895,527,130,128999,110606
1898,528,130,128999,110611
1900,528,130,129003,110610
1903,527,130,129003,110615
1905,526,130,129015,110615
1907,526,130,129018,110618
1910,525,130,129018,110617
1912,525,130,129047,110621
1915,527,130,129041,110627
1917,529,130,129053,110621
1921,531,130,129048,110621
1923,532,130,129063,110636
1925,533,130,129063,110625
1928,536,130,129064,110626
1930,538,131,129066,110626
1933,539,131,129061,110626
1935,541,130,129060,110632
1938,543,131,129060,110621
1940,544,131,129060,110621
1943,548,131,129046,110619
1945,551,131,129047,110614
1947,553,131,129028,110614
1950,555,131,129016,110607
1952,557,131,129016,110601
1955,559,131,128974,110579
1957,559,131,128943,110567
1960,560,131,128862,110567
1963,562,131,128862,110524
1965,565,131,128819,110524
1968,566,131,128687,110500
1970,567,131,128687,110481
1973,567,131,128608,110454
1975,565,131,128529,110424
1978,564,131,128427,110396
1980,562,131,128211,110356
1983,560,131,128211,110310
1985,557,131,128098,110281
1987,554,131,127957,110230
1990,551,131,127825,110190
1992,546,131,127682,110127
1995,544,131,127502,110078
1997,543,131,127349,110020
2000,543,131,127179,109963
2002,540,131,127037,109914
2004,538,131,126877,109863
2008,535,131,126709,109811
2010,532,131,126560,109755
2013,528,131,126418,109711
2015,523,131,126285,109656
2018,518,130,126147,109610
2020,509,130,126005,109571
2023,504,130,125892,109529
2025,499,131,125775,109474
2027,496,131,125661,109442
2030,492,131,125563,109408
2032,488,130,125468,109386
2035,484,130,125361,109351
2037,480,130,125281,109323
2040,476,130,125202,109305
2042,470,130,125147,109289
2044,466,130,125065,109272
2048,463,130,125008,109258
2050,461,130,124956,109244
2053,459,130,124917,109244
2055,456,130,124888,109234
2058,456,130,124842,109228
2060,456,130,124827,109217
2063,456,130,124813,109219
2065,456,130,124781,109216
2067,456,130,124786,109219
2070,456,130,124777,109221
2072,457,130,124757,109225
2075,458,130,124766,109235
2077,460,130,124776,109238
2080,463,130,124780,109236
2082,465,130,124789,109240
2084,467,130,124793,109256
2087,467,130,124803,109256
2089,468,130,124829,109263
2093,469,130,124845,109276
2095,471,130,124855,109284
2098,474,130,124884,109289
2100,476,130,124906,109307
2103,478,130,124939,109315
2105,479,130,124947,109320
2107,480,130,124972,109329
2110,480,130,124992,109343
2112,480,130,125036,109352
2115,482,130,125066,109360
2117,484,131,125095,109364
2120,487,130,125118,109371
2122,489,131,125141,109395
2124,489,130,125183,109407
2127,489,131,125205,109401
2129,489,131,125247,109425
2132,490,130,125264,109432
2135,491,131,125290,109445
2138,493,131,125316,109446
2140,494,130,125343,109465
2143,496,131,125368,109472
2145,498,131,125391,109486
2147,499,131,125422,109483
2150,499,131,125446,109472
2152,500,131,125473,109502
2155,503,131,125495,109516
2157,505,131,125522,109525
2160,506,131,125540,109524
2162,508,131,125571,109531
2164,509,131,125587,109544
2167,510,131,125615,109553
2169,509,131,125645,109567
2172,507,131,125676,109572
2174,506,131,125698,109583
2178,506,131,125728,109584
2180,506,131,125752,109585
2183,505,131,125774,109600
2185,506,131,125803,109609
2187,506,131,125841,109619
2190,506,131,125864,109631
2192,506,131,125883,109637
2195,507,131,125910,109647
2197,508,131,125938,109648
2200,509,131,125938,109660
2202,510,131,125994,109661
2204,511,131,126008,109673
2207,511,131,126036,109677
2209,511,131,126054,109685
2212,511,131,126079,109693
2214,511,131,126085,109695
2217,512,131,126096,109705
2220,512,131,126127,109707
2223,512,131,126127,109724
2225,512,131,126163,109715
2227,513,131,126177,109715
2230,514,131,126197,109730
2232,514,132,126206,109730
2235,515,132,126219,109746
2237,517,131,126224,109744
2240,518,132,126247,109768
2242,520,132,126256,109750
2244,520,132,126260,109750
2247,521,132,126275,109753
2249,521,132,126275,109752
2252,522,132,126286,109760
2254,522,132,126286,109760
2257,523,132,126301,109765
2259,522,132,126301,109764
2263,522,132,126301,109762
2265,520,132,126314,109770
2267,519,132,126314,109775
2270,518,132,126306,109770
2272,519,132,126312,109770
2275,520,132,126321,109768
2277,521,132,126309,109760
2280,521,132,126311,109760
2282,521,132,126305,109765
2284,519,132,126305,109755
2287,519,132,126288,109754
2289,518,132,126288,109759
2292,518,132,126279,109748
2294,518,132,126269,109748
2297,518,132,126266,109754
2299,518,132,126266,109745
2302,517,132,126260,109747
2305,517,132,126242,109747
2307,517,132,126243,109740
2310,516,132,126235,109736
2312,515,132,126235,109730
2315,516,132,126224,109735
2317,517,132,126223,109735
2320,517,132,126205,109739
2322,518,132,126205,109725
2324,518,132,126209,109726
2327,518,132,126205,109726
2329,518,132,126205,109731
2332,517,132,126205,109722
2334,516,132,126207,109731
2337,516,132,126208,109735
2339,516,132,126197,109735
2342,516,132,126221,109731
2344,514,132,126221,109734
2347,512,132,126228,109729
2350,511,132,126236,109729
2352,510,132,126237,109740
2355,509,132,126237,109738
2357,508,132,126252,109738
2360,507,132,126252,109744
2362,507,132,126266,109744
2364,508,132,126277,109753
2367,510,132,126277,109751
2369,511,132,126297,109761
2372,512,132,126310,109761
2374,512,132,126329,109761
2377,512,132,126329,109774
2379,512,132,126344,109774
2382,512,132,126357,109779
2384,512,132,126388,109779
2386,511,132,126412,109794
2390,509,132,126412,109800
2392,509,132,126433,109814
2395,509,132,126451,109814
2397,508,132,126506,109814
2400,506,132,126506,109828
2402,505,133,126550,109828
2404,505,133,126566,109837
2407,506,133,126566,109847
2409,507,132,126600,109847
2412,507,132,126641,109861
2414,508,132,126641,109864
2417,509,132,126655,109882
2419,509,132,126684,109886
2422,510,132,126705,109886
2424,510,132,126748,109894
2426,512,132,126748,109901
2429,513,132,126776,109910
2432,513,132,126809,109927
2435,512,132,126831,109927
2437,512,133,126853,109933
2440,513,133,126875,109940
2442,515,132,126930,109954
2444,516,132,126930,109968
2447,517,132,126957,109968
2449,520,133,126984,109976
2452,521,133,127009,109984
2454,524,133,127027,109993
2457,525,133,127056,110004
2459,527,132,127109,110004
2462,527,133,127105,110013
2464,527,133,127134,110020
2466,527,133,127167,110037
2469,526,132,127200,110037
2471,524,133,127213,110038
2475,523,133,127229,110051
2477,522,132,127263,110053
2480,522,133,127285,110067
2482,522,133,127309,110073
2484,521,133,127335,110081
2487,519,132,127336,110087
2489,517,133,127355,110090
2492,515,132,127398,110098
2494,512,132,127404,110109
2497,511,133,127418,110118
2499,509,132,127435,110113
2502,508,132,127451,110122
2504,504,132,127470,110129
2506,501,132,127496,110127
2509,499,132,127485,110133
2511,498,132,127520,110142
2514,496,132,127534,110146
2516,494,132,127554,110151
2520,492,132,127578,110157
2522,488,132,127590,110163
2524,485,132,127597,110165
2527,483,132,127616,110169
2529,482,132,127621,110180
2532,481,132,127644,110181
2534,481,132,127658,110179
2537,480,132,127654,110191
2539,479,132,127661,110191
2542,478,132,127700,110199
2544,476,132,127704,110201
2546,474,132,127716,110201
2549,472,132,127729,110204
2551,470,132,127746,110209
2554,471,132,127753,110210
2556,471,132,127766,110210
2560,472,132,127773,110220
2562,474,132,127781,110221
2564,475,132,127793,110215
2567,475,132,127814,110223
2569,474,132,127807,110230
2572,474,132,127831,110234
2574,475,132,127845,110247
2577,475,132,127859,110241
2579,476,132,127865,110241
2582,477,132,127873,110252
2584,478,132,127877,110256
2586,478,131,127889,110258
2589,476,132,127914,110259
2591,474,132,127911,110264
2594,473,132,127924,110264
2596,473,132,127936,110264
2599,474,132,127935,110268
2601,474,131,127948,110270
2604,473,132,127954,110262
2607,472,131,127962,110272
2609,470,131,127979,110269
2612,469,131,127988,110280
2614,467,131,128001,110290
2617,467,132,128008,110285
2619,467,132,128015,110296
2622,468,131,128026,110303
2624,468,131,128025,110293
2626,468,131,128044,110304
2629,467,132,128042,110303
2631,467,132,128067,110305
2634,468,132,128073,110311
2636,471,131,128074,110322
2639,474,131,128096,110319
2641,476,131,128105,110332
2643,477,131,128116,110303
2647,477,131,128119,110333
2649,476,131,128129,110329
2652,475,132,128136,110333
2654,475,131,128151,110334
2657,475,132,128159,110333
2659,477,131,128165,110345
2662,478,132,128179,110346
2664,481,131,128187,110343
2666,483,132,128201,110342
2669,484,132,128210,110352
2671,485,132,128212,110352
2674,487,132,128220,110360
2676,489,132,128219,110363
2679,490,132,128232,110365
2681,491,132,128232,110363
2683,492,132,128246,110363
2686,492,132,128265,110369
2689,492,131,128255,110368
2692,493,132,128273,110375
2694,495,132,128282,110369
2697,497,132,128291,110381
2699,499,132,128297,110381
2702,500,132,128310,110381
2704,501,132,128318,110388
2706,501,132,128329,110390
2709,500,132,128333,110395
2711,500,132,128347,110394
2714,501,132,128357,110395
2716,502,132,128362,110401
2719,503,132,128375,110401
2721,502,132,128379,110405
2723,502,132,128379,110407
2726,502,132,128404,110411
2728,502,132,128409,110411
2732,502,132,128421,110418
2734,502,132,128421,110420
2737,503,132,128440,110423
2739,505,132,128444,110419
2742,505,132,128450,110419
2744,505,132,128462,110424
2746,504,132,128462,110430
2749,503,131,128469,110430
2751,503,132,128486,110430
2754,502,132,128497,110436
2756,501,132,128504,110438
2759,501,132,128513,110438
2761,499,132,128524,110447
2763,498,132,128536,110447
2766,496,132,128543,110451
2768,494,132,128543,110456
2771,493,132,128555,110454
2774,493,132,128560,110454
2777,492,132,128583,110466
2779,492,132,128583,110470
2782,492,132,128585,110467
2784,493,132,128595,110474
2786,493,132,128607,110474
2789,492,132,128617,110476
2791,491,132,128617,110480
2794,491,132,128629,110478
2796,491,132,128633,110478
2799,492,132,128645,110488
2801,493,131,128645,110487
2803,494,132,128646,110495
2806,495,131,128660,110495
2808,496,131,128679,110493
2811,496,131,128685,110496
2813,496,131,128685,110493
2817,496,132,128685,110499
2819,496,132,128692,110499
2822,497,131,128705,110498
2824,499,131,128705,110505
2826,499,132,128700,110508
2829,499,131,128723,110508
2831,498,132,128727,110510
2834,492,131,128727,110510
2836,489,131,128740,110510
2839,482,132,128740,110515
2841,480,132,128752,110515
2843,479,131,128763,110521
2846,480,132,128763,110518
2848,483,131,128769,110525
2851,487,131,128781,110525
2853,492,131,128797,110530
2856,509,131,128797,110532
2859,526,132,128796,110533
2862,558,131,128805,110537
2864,582,132,128813,110537
2866,614,131,128828,110544
2869,641,131,128828,110544
2871,638,131,128834,110544
2874,623,132,128834,110548
2876,596,132,128843,110546
2879,574,132,128839,110546
2881,552,132,128863,110550
2883,521,131,128863,110551
2886,513,132,128867,110560
2888,511,131,128874,110560
2891,507,132,128881,110559
2893,503,131,128882,110560
2896,491,131,128882,110559
2898,482,131,128881,110574
2902,479,131,128888,110574
2904,477,131,128905,110565
2906,476,131,128905,110568
2909,477,131,128903,110568
2911,483,131,128912,110569
2914,483,132,128924,110581
2916,489,132,128919,110585
2919,498,132,128939,110585
2921,500,132,128939,110585
2923,504,132,128949,110585
2926,505,132,128946,110589
2928,506,132,128969,110579
2931,507,132,128965,110593
2933,507,132,128969,110591
2936,508,132,128967,110591
2938,510,132,128968,110592
2941,511,132,128978,110591
2944,511,132,128988,110602
2946,511,132,128992,110597
2949,511,131,129001,110597
2951,509,132,129006,110598
2954,508,132,128995,110599
2956,508,131,129016,110602
2959,507,132,129018,110606
2961,506,131,129023,110599
2963,506,131,129015,110611
2966,504,131,129026,110600
2968,502,132,129040,110601
2971,500,131,129028,110614
2973,498,131,129037,110606
2976,496,131,129039,110612
2978,494,131,129045,110614
2981,492,131,129056,110619
2983,492,131,129048,110613
2985,492,131,129050,110615
2989,492,131,129076,110621
2991,492,131,129064,110616
2994,492,131,129057,110622
2996,492,131,129080,110623
2999,493,131,129079,110625
3001,493,131,129077,110629
3003,492,131,129092,110626
3006,491,131,129095,110623
3008,491,131,129099,110630
3011,490,131,129106,110624
3013,490,131,129099,110639
3016,490,131,129107,110636
3018,490,131,129116,110627
3021,489,131,129107,110641
3023,489,131,129108,110632
3025,490,131,129111,110636
3028,493,131,129119,110630
3031,495,131,129134,110644
3034,496,131,129125,110637
3036,497,131,129142,110636
3039,498,131,129151,110640
3041,500,131,129140,110642
3043,500,131,129148,110640
3046,499,131,129159,110647
3048,498,131,129142,110648
3051,499,131,129165,110643
3053,500,131,129159,110652
3056,502,131,129172,110648
3058,502,131,129178,110655
3061,503,131,129162,110650
3063,502,131,129175,110661
3065,501,131,129178,110654
3068,498,130,129178,110660
3070,497,130,129175,110656
3074,496,131,129185,110656
3076,496,131,129176,110662
3079,496,131,129163,110655
3081,495,130,129165,110653
3083,495,130,129155,110644
3086,493,130,129141,110642
3088,491,130,129136,110644
3091,489,130,129113,110633
3093,487,130,129094,110628
3096,487,130,129070,110590
3098,487,130,129033,110596
3101,489,130,128981,110583
3103,491,130,128937,110559
3105,493,130,128894,110544
3108,494,130,128827,110526
3110,494,130,128766,110494
3113,496,130,128678,110463
3116,499,130,128596,110441
3119,502,130,128500,110409
3121,503,130,128387,110372
3123,503,130,128280,110305
3126,502,130,128156,110287
3128,501,130,128018,110246
3131,500,130,127870,110197
3133,499,130,127719,110137
3136,500,130,127564,110085
3138,502,130,127392,110039
3141,503,130,127234,109975
3143,504,130,127089,109915
3145,504,130,126926,109915
3148,503,130,126783,109818
3150,502,130,126635,109779
3153,501,130,126494,109723
3155,500,130,126362,109675
3159,499,130,126228,109675
3161,493,130,126115,109597
3163,490,130,126115,109544
3166,486,130,125874,109507
3168,483,130,125771,109477
3171,481,130,125668,109477
3173,476,130,125578,109414
3176,474,130,125578,109378
3178,471,130,125405,109354
3181,467,130,125322,109333
3183,464,130,125258,109308
3185,463,130,125184,109290
3188,461,130,125122,109283
3190,461,130,125071,109268
3193,461,130,125034,109253
3195,461,130,124990,109268
3198,461,130,124957,109242
3201,461,130,124931,109242
3203,461,130,124914,109242
3206,460,130,124900,109232
3208,460,130,124888,109243
3211,459,129,124884,109236
3213,460,130,124884,109236
3216,460,130,124893,109246
3218,461,129,124889,109246
3221,462,129,124889,109254
3223,461,129,124905,109268
3225,461,130,124919,109268
3228,460,129,124944,109287
3230,460,129,124944,109292
3233,460,129,124961,109300
3235,461,129,124995,109300
3238,462,129,125024,109316
3240,464,129,125024,109328
3243,465,129,125054,109334
3246,467,129,125103,109352
3248,469,129,125138,109352
3251,471,129,125161,109377
3253,473,129,125161,109379
3256,475,129,125223,109390
3258,476,129,125256,109390
3261,477,129,125284,109410
3263,478,129,125329,109433
3265,478,129,125348,109433
3268,479,129,125391,109454
3270,479,129,125391,109467
3273,480,129,125430,109474
3275,480,129,125491,109474
3278,481,129,125528,109501
3280,482,129,125528,109513
3282,483,129,125560,109520
3286,484,129,125629,109520
3288,485,129,125655,109537
3291,486,129,125684,109545
3293,488,129,125684,109560
3296,489,129,125753,109571
3298,490,129,125769,109581
3301,490,129,125769,109586
3303,491,129,125815,109586
3305,491,129,125866,109597
3308,490,129,125895,109613
3310,491,129,125895,109625
3313,491,129,125950,109625
3315,492,129,125995,109632
3318,493,129,125995,109648
3320,493,129,126012,109665
3322,494,129,126054,109677
3325,493,129,126107,109687
3328,493,129,126107,109698
3331,494,129,126168,109698
3333,495,129,126204,109711
3336,496,129,126204,109718
3338,496,129,126228,109731
3341,496,129,126250,109737
3343,495,129,126310,109737
3345,494,129,126331,109757
3348,493,129,126331,109761
3350,492,129,126357,109771
3353,491,129,126375,109772
3355,491,128,126393,109779
3358,491,129,126439,109779
3360,492,129,126439,109795
3362,494,129,126455,109805
3365,495,129,126479,109805
3367,496,129,126479,109813
3371,498,129,126501,109813
3373,499,129,126513,109824
3376,500,129,126541,109824
3378,502,129,126541,109826
3381,503,129,126558,109826
3383,504,129,126575,109829
3385,505,129,126575,109829
3388,505,129,126571,109829
3390,508,129,126576,109838
3393,508,129,126587,109836
3395,509,129,126580,109830
3398,513,129,126585,109830
3400,514,129,126585,109837
3402,517,129,126592,109837
3405,518,129,126594,109839
3407,518,129,126616,109840
3410,518,129,126595,109836
3412,518,129,126596,109841
3416,518,129,126591,109841
3418,518,129,126583,109840
3421,518,129,126586,109838
3423,517,129,126584,109842
3425,517,128,126573,109829
3428,516,129,126570,109829
3430,513,129,126559,109827
3433,511,129,126554,109822
3435,511,129,126544,109816
3438,511,129,126534,109813
3440,511,128,126527,109818
3442,510,128,126517,109804
3445,508,128,126494,109804
3447,506,128,126494,109800
3450,503,128,126486,109797
3452,499,128,126478,109796
3456,496,128,126452,109784
3458,494,128,126446,109780
3461,491,128,126439,109782
3463,488,128,126434,109777
3465,485,128,126425,109772
3468,481,128,126417,109778
3470,478,128,126414,109774
3473,475,128,126421,109772
3475,472,128,126421,109778
3478,469,127,126422,109779
3480,464,127,126415,109779
3482,462,127,126413,109776
3485,459,127,126418,109772
3487,458,127,126423,109772
3490,456,127,126430,109782
3492,456,127,126438,109783
3495,456,127,126445,109785
3497,457,127,126457,109792
3501,457,127,126453,109796
3503,457,127,126465,109798
3505,457,127,126476,109800
3508,458,127,126478,109799
3510,459,127,126496,109803
3513,460,127,126511,109811
3515,461,127,126527,109813
3518,463,127,126541,109813
3520,465,127,126548,109824
3522,466,126,126555,109820
3525,468,127,126575,109828
3527,468,126,126596,109833
3530,468,126,126613,109842
3532,467,126,126619,109848
3535,468,126,126650,109857
3537,468,126,126667,109857
3540,469,126,126692,109859
3543,469,126,126699,109867
3545,469,126,126732,109880
3548,468,126,126762,109894
3550,467,126,126778,109892
3553,467,126,126807,109900
3555,468,126,126832,109908
3558,470,126,126856,109921
3560,471,126,126891,109930
3562,472,126,126906,109937
3565,473,126,126936,109945
3567,473,126,126958,109947
3570,472,126,126992,109958
3572,472,126,127006,109971
3575,472,126,127028,109979
3577,473,126,127065,109979
3580,473,126,127078,109999
3582,473,125,127106,109997
3585,473,126,127128,110009
3588,472,125,127159,110020
3590,471,125,127180,110022
3593,471,125,127201,110032
3595,470,125,127224,110042
3598,470,125,127258,110049
3600,469,125,127269,110056
3602,469,125,127291,110062
3605,469,125,127307,110065
3607,469,125,127332,110075
3610,471,125,127353,110084
3612,472,125,127380,110086
3615,473,125,127391,110090
3617,475,125,127414,110096
3620,475,125,127436,110098
3622,478,125,127451,110111
3624,480,125,127477,110113
3628,482,125,127498,110126
3630,484,125,127509,110129
3633,485,125,127528,110130
3635,488,125,127555,110140
3638,489,125,127566,110140
3640,491,125,127578,110148
3642,493,125,127594,110148
3645,493,125,127620,110162
3647,493,125,127636,110173
3650,493,125,127661,110174
3652,493,125,127666,110179
3655,493,124,127682,110179
3657,492,124,127701,110193
3660,491,124,127701,110184
3662,489,124,127725,110197
3664,487,124,127737,110197
3667,483,124,127750,110201
3670,481,124,127758,110201
3673,479,124,127774,110222
3675,476,124,127786,110211
3678,475,124,127805,110211
3680,470,124,127813,110220
3682,469,124,127813,110227
3685,467,124,127826,110217
3687,466,124,127843,110217
3690,466,123,127866,110237
3692,465,123,127866,110237
3695,465,123,127883,110245
3697,465,123,127891,110239
3700,466,123,127900,110239
3702,464,123,127909,110243
3704,463,123,127909,110253
3707,462,123,127940,110262
3709,462,123,127949,110262
3713,463,123,127966,110261
3715,464,123,127980,110267
3718,464,123,127983,110267
3720,465,123,127998,110272
3722,465,123,128005,110272
3725,465,123,128018,110286
3727,466,123,128018,110284
3730,467,123,128035,110291
3732,468,122,128050,110291
3735,471,122,128064,110289
3737,471,122,128064,110294
3740,472,122,128064,110295
3742,472,122,128080,110295
3744,472,122,128097,110301
3747,472,122,128097,110306
3749,471,122,128109,110311
3752,471,122,128117,110311
3755,472,122,128122,110326
3758,472,122,128145,110319
3760,473,122,128146,110319
3762,473,122,128167,110323
3765,474,122,128167,110322
3767,474,122,128167,110328
3770,473,121,128173,110338
3772,473,122,128189,110338
3775,472,122,128209,110338
3777,471,121,128209,110339
3780,471,121,128219,110342
3782,471,121,128236,110342
3784,471,121,128245,110348
3787,471,121,128245,110354
3789,472,121,128249,110354
3792,474,121,128250,110357
3794,474,121,128279,110357
3798,475,121,128295,110372
3800,477,121,128295,110371
3802,478,121,128296,110365
3805,479,121,128318,110365
3807,480,121,128331,110376
3810,482,121,128331,110375
3812,483,121,128333,110378
3815,484,121,128342,110384
3817,485,121,128326,110384
3820,485,121,128366,110388
3822,486,121,128366,110382
3824,485,120,128344,110391
3827,485,120,128384,110391
3829,483,120,128392,110398
3832,482,120,128392,110402
3834,481,120,128405,110407
3837,481,120,128417,110407
3840,481,120,128439,110411
3842,482,120,128439,110409
3845,482,120,128439,110417
3847,484,120,128442,110415
3850,485,120,128453,110415
3852,488,120,128453,110418
3855,490,120,128484,110418
3857,494,120,128484,110423
3860,497,120,128481,110423
3862,500,120,128497,110430
3864,503,120,128497,110439
3867,505,120,128499,110439
3869,511,120,128510,110438
3872,514,120,128521,110439
3874,517,120,128527,110446
3877,520,120,128527,110446
3879,522,120,128566,110446
3881,523,120,128566,110447
3885,524,120,128554,110447
3887,525,120,128555,110456
3890,524,120,128573,110451
3892,524,120,128594,110461
3895,525,120,128594,110468
3897,526,120,128598,110463
3900,529,120,128604,110463
3902,529,120,128616,110466
3904,530,120,128638,110471
3907,530,120,128627,110475
3909,531,120,128638,110470
3912,531,120,128651,110479
3914,530,119,128651,110483
3917,529,119,128659,110476
3919,526,119,128667,110481
3921,524,119,128670,110486
3924,522,119,128671,110489
3927,520,119,128689,110487
3930,518,119,128689,110491
3932,513,119,128693,110487
3935,511,119,128709,110495
3937,510,119,128707,110499
3940,508,119,128715,110500
3942,507,119,128724,110496
3944,505,119,128722,110506
3947,501,119,128734,110502
3949,499,119,128754,110503
3952,497,119,128744,110509
3954,495,118,128752,110503
3957,493,118,128757,110515
3959,490,118,128771,110505
3961,489,118,128780,110507
3964,489,118,128769,110515
3966,489,118,128793,110515
3970,490,118,128793,110525
3972,490,118,128802,110520
3975,490,118,128815,110531
3977,490,118,128821,110528
3980,490,118,128825,110538
3982,490,118,128829,110530
3984,490,118,128839,110537
3987,490,118,128853,110537
3989,490,118,128857,110544
3992,490,118,128867,110542
3994,491,118,128871,110546
3997,491,118,128870,110548
3999,491,117,128880,110547
4001,488,117,128888,110550
4004,479,117,128897,110550
4006,473,117,128886,110552
4009,468,117,128902,110560
4012,466,117,128903,110551
4015,466,117,128922,110562
4017,467,117,128929,110558
4020,470,117,128923,110558
4022,475,117,128924,110564
4024,484,117,128933,110565
4027,502,117,128943,110571
4029,518,117,128944,110572
4032,540,117,128949,110575
4034,568,117,128953,110569
4037,604,117,128954,110579
4039,627,117,128968,110582
4041,624,117,128973,110578
4044,613,117,128976,110582
4046,590,117,128993,110589
4049,545,117,128981,110586
4051,523,117,129000,110588
4055,509,116,128996,110595
4057,502,116,129009,110595
4060,499,117,129012,110590
4062,494,116,129014,110591
4064,489,116,129023,110601
4067,482,116,129027,110598
4069,475,116,129036,110601
4072,471,116,129036,110605
4074,471,116,129041,110601
4077,473,116,129053,110605
4079,475,116,129055,110608
4081,479,116,129055,110609
4084,483,116,129068,110612
4086,487,116,129064,110606
4089,490,116,129070,110611
4091,490,116,129079,110609
4094,489,116,129082,110616
4097,489,116,129081,110615
4100,490,116,129094,110617
4102,492,116,129091,110599
4104,494,116,129080,110616
4107,496,116,129098,110617
4109,498,116,129106,110630
4112,499,116,129100,110618
4114,503,116,129103,110623
4117,506,116,129106,110623
4119,510,116,129119,110628
4121,511,116,129119,110617
4124,511,116,129117,110620
4126,511,115,129116,110619
4129,512,115,129118,110619
4131,514,115,129134,110630
4134,514,116,129134,110626
4136,515,115,129132,110632
4140,515,115,129139,110644
4142,515,115,129150,110645
4144,515,115,129151,110645
4147,514,116,129166,110640
4149,515,115,129161,110636
4152,516,115,129160,110640
4154,520,115,129165,110652
4157,522,115,129170,110633
4159,524,115,129172,110642
4161,525,115,129178,110642
4164,526,115,129182,110646
4166,526,115,129183,110641
4169,525,115,129188,110649
4171,525,115,129193,110649
4174,526,115,129198,110644
4176,527,115,129192,110654
4179,527,115,129192,110646
4182,527,115,129191,110650
4184,528,115,129206,110650
4187,527,115,129207,110658
4189,525,115,129207,110642
4192,524,115,129206,110655
4194,525,115,129208,110655
4197,526,115,129217,110650
4199,527,115,129216,110655
4201,528,115,129223,110655
4204,528,114,129215,110653
4206,528,115,129215,110661
4209,528,114,129231,110658
4211,528,115,129238,110658
4214,528,114,129236,110662
4216,530,114,129239,110658
4219,531,115,129239,110665
4221,532,114,129248,110663
4224,532,114,129248,110657
4227,532,114,129250,110669
4229,532,115,129244,110669
4232,532,114,129247,110664
4234,533,114,129247,110664
4237,534,114,129256,110664
4239,536,114,129262,110666
4241,537,114,129255,110666
4244,537,114,129249,110664
4246,538,114,129249,110663
4249,538,114,129243,110663
4251,539,114,129243,110652
4254,541,114,129227,110652
4256,544,114,129227,110647
4259,546,114,129216,110650
4261,548,114,129184,110650
4263,548,114,129169,110633
4267,549,114,129169,110614
4269,549,114,129130,110599
4272,551,114,129043,110580
4274,552,114,128997,110580
4277,553,114,128946,110573
4279,555,114,128946,110516
4281,557,114,128876,110499
4284,558,114,128724,110499
4286,559,114,128626,110463
4289,561,114,128626,110396
4291,562,114,128525,110355
4294,562,114,128413,110312
4296,563,114,128122,110312
4299,564,114,128018,110271
4301,565,114,128018,110173
4303,564,114,127877,110119
4306,563,114,127549,110119
4308,562,114,127388,110071
4312,561,114,127388,109950
4314,560,114,127067,109950
4317,557,114,127067,109855
4319,556,114,126774,109855
4321,554,114,126629,109803
4324,552,114,126629,109709
4326,551,114,126504,109709
4329,549,114,126227,109661
4331,547,114,126114,109620
4334,544,114,126114,109531
4336,542,114,125998,109505
4339,540,114,125891,109505
4341,539,114,125693,109461
4343,538,114,125595,109434
4346,538,114,125595,109382
4348,538,114,125517,109349
4352,536,114,125429,109349
4354,534,114,125356,109308
4357,534,114,125286,109308
4359,534,114,125161,109291
4361,535,114,125161,109262
4364,536,114,125108,109262
4366,538,114,125065,109244
4369,538,114,125022,109241
4371,539,115,124988,109242
4374,540,115,124963,109242
4376,543,115,124944,109238
4379,547,115,124932,109241
4381,549,114,124924,109240
4383,550,115,124911,109240
4386,550,115,124914,109242
4388,550,114,124917,109258
4391,550,114,124928,109258
4393,549,115,124938,109256
4397,548,115,124940,109270
4399,547,114,124968,109283
4401,548,115,124980,109275
4404,549,114,125009,109295
4406,548,114,125023,109297
4409,547,114,125038,109306
4411,545,114,125067,109312
4414,545,114,125084,109331
4416,543,115,125113,109335
4419,542,114,125140,109354
4421,539,114,125161,109353
4423,539,114,125196,109369
4426,538,114,125223,109381
4428,537,115,125257,109392
4431,537,114,125289,109399
4433,540,114,125308,109406
4436,541,114,125346,109420
4439,542,114,125379,109436
4441,543,114,125410,109442
4444,543,114,125451,109450
4446,543,114,125479,109465
4449,540,114,125496,109475
4451,538,114,125539,109483
4454,536,114,125577,109494
4456,534,114,125606,109498
4459,531,114,125630,109520
4461,529,114,125652,109522
4463,528,114,125689,109532
4466,526,114,125707,109546
4468,525,114,125738,109554
4471,524,114,125769,109559
4473,524,114,125798,109569
4476,524,114,125826,109580
4478,523,114,125851,109593
4481,521,114,125885,109602
4484,518,114,125903,109606
4486,515,114,125920,109621
4489,513,114,125954,109622
4491,513,114,125988,109631
4494,514,114,126012,109642
4496,515,114,126039,109646
4499,516,114,126052,109658
4501,517,114,126096,109666
4503,518,114,126113,109672
4506,518,114,126149,109677
4508,516,114,126170,109699
4511,515,114,126188,109698
4513,514,114,126209,109701
4516,513,114,126228,109716
4518,513,114,126270,109723
4520,514,114,126272,109726
4524,515,114,126296,109733
4526,515,114,126317,109738
4529,514,114,126343,109740
4531,513,114,126352,109752
4534,513,114,126372,109756
4536,514,114,126387,109766
4539,515,114,126396,109769
4541,516,114,126419,109762
4543,517,114,126425,109774
4546,517,114,126431,109773
4548,518,114,126436,109777
4551,520,114,126439,109784
4553,521,114,126453,109785
4556,521,114,126464,109780
4558,520,114,126467,109786
4560,520,114,126469,109789
4563,521,114,126481,109797
4566,521,114,126476,109797
4569,520,114,126480,109795
4571,520,114,126484,109793
4574,520,114,126471,109790
4576,520,114,126478,109791
4579,521,114,126472,109790
4581,523,114,126467,109783
4583,525,114,126451,109785
4586,527,114,126451,109781
4588,526,114,126453,109779
4591,526,114,126441,109773
4593,525,114,126431,109768
4596,526,114,126422,109768
4598,527,114,126411,109763
4600,527,114,126411,109762
4603,525,114,126402,109752
4605,525,114,126377,109753
4609,526,114,126365,109753
4611,525,114,126370,109742
4614,525,114,126370,109740
4616,524,114,126345,109736
4619,524,114,126327,109732
4621,523,114,126325,109720
4623,521,114,126313,109722
4626,521,114,126288,109717
4628,521,114,126286,109708
4631,521,114,126286,109710
4633,522,114,126276,109721
4636,523,114,126271,109721
4638,524,114,126269,109702
4640,525,114,126269,109702
4643,527,114,126260,109699
4645,528,114,126265,109695
4648,528,114,126256,109702
4651,527,114,126252,109699
4654,527,114,126253,109702
4656,526,114,126253,109701
4659,527,114,126256,109701
4661,528,114,126265,109708
4663,528,114,126270,109712
4666,527,114,126278,109712
4668,527,114,126278,109713
4671,527,114,126297,109721
4673,530,114,126295,109727
4676,531,114,126328,109719
4678,533,114,126324,109723
4680,534,114,126334,109723
4683,534,114,126361,109738
4685,533,114,126361,109743
4688,532,114,126377,109753
4690,532,114,126400,109753
4694,532,114,126424,109758
4696,531,114,126424,109761
4699,531,114,126440,109779
4701,530,114,126477,109780
4703,529,114,126498,109787
4706,527,114,126519,109799
4708,527,114,126543,109799
4711,528,114,126567,109805
4713,530,114,126585,109805
4716,532,114,126613,109812
4718,534,114,126613,109829
4720,534,114,126632,109832
4723,534,114,126674,109838
4725,533,114,126674,109847
4728,533,114,126726,109858
4730,534,114,126746,109858
4733,535,114,126778,109864
4736,535,114,126778,109876
4739,536,114,126802,109890
4741,537,114,126847,109890
4743,538,114,126884,109899
4746,538,114,126884,109908
4748,538,114,126911,109919
4751,538,114,126957,109927
4753,539,114,126975,109927
4756,538,114,127011,109942
4758,538,114,127011,109943
4760,538,114,127025,109960
4763,538,114,127087,109960
4765,538,114,127119,109976
4768,539,114,127119,109984
4770,539,114,127129,109995
4773,538,114,127176,110002
4775,538,114,127203,110002
4779,537,114,127218,110010
4781,535,114,127218,110014
4783,533,114,127243,110025
4786,532,114,127282,110025
4788,530,114,127298,110030
4791,529,114,127298,110045
4793,529,114,127338,110045
4796,529,114,127338,110051
4798,529,114,127371,110051
4800,528,114,127382,110068
4803,531,114,127382,110074
4805,532,114,127405,110074
4808,534,114,127438,110076
4810,535,114,127455,110091
4813,537,114,127455,110095
4815,539,114,127471,110099
4818,541,115,127479,110099
4820,541,115,127501,110097
4823,542,114,127526,110099
4826,543,114,127526,110117
4828,542,114,127544,110114
4831,542,114,127552,110128
4833,540,115,127569,110136
4836,541,115,127592,110136
4838,541,115,127592,110134
4840,543,115,127608,110134
4843,544,115,127607,110141
4845,546,115,127635,110142
4848,548,115,127635,110148
4850,548,115,127649,110155
4853,550,115,127655,110155
4855,551,115,127667,110155
4858,552,115,127685,110157
4860,553,115,127705,110166
4862,554,115,127705,110173
4866,554,115,127713,110173
4868,554,115,127727,110172
4871,554,115,127738,110181
4873,555,115,127742,110186
4876,557,115,127759,110178
4878,559,115,127792,110188
4880,562,115,127778,110188
4883,561,115,127788,110191
4885,561,115,127812,110196
4888,560,115,127806,110199
4890,560,115,127824,110201
4893,559,115,127831,110201
4895,558,115,127830,110205
4898,556,115,127843,110206
4900,555,115,127860,110211
4902,555,115,127867,110209
4905,554,115,127879,110217
4908,551,115,127888,110212
4911,549,115,127893,110223
4913,547,115,127911,110222
4916,545,115,127908,110222
4918,544,115,127933,110229
4920,543,115,127940,110238
4923,541,115,127944,110238
4925,539,115,127950,110245
4928,537,115,127969,110243
4930,535,115,127968,110253
4933,534,115,127990,110243
4935,532,115,127984,110250
4938,531,115,128000,110256
4940,529,115,128012,110262
4942,527,115,128028,110264
4945,524,115,128026,110261
4947,524,115,128040,110268
4951,524,115,128044,110275
4953,524,115,128047,110275
4956,525,115,128067,110274
4958,528,115,128073,110279
4960,529,115,128066,110277
4963,529,115,128084,110279
4965,529,115,128083,110282
4968,530,115,128101,110282
4970,528,115,128092,110289
4973,527,115,128110,110300
4975,526,115,128125,110290
4978,525,115,128135,110296
4980,525,115,128146,110299
4982,524,115,128137,110302
4985,522,115,128151,110295
4987,522,115,128159,110304
4990,521,115,128169,110310
4993,520,115,128186,110308
4996,519,115,128185,110311
4998,518,115,128195,110314
5000,516,115,128199,110316
5003,512,115,128214,110323
5005,510,115,128217,110327
5008,507,115,128235,110323
5010,505,115,128238,110325
5013,503,115,128240,110329
5015,502,115,128256,110337
5018,502,115,128265,110345
5020,502,115,128269,110345
5022,503,115,128273,110338
5025,501,115,128290,110345
5027,499,115,128299,110357
5030,497,115,128307,110349
5032,495,115,128311,110344
5036,495,115,128318,110353
5038,496,115,128325,110356
5040,496,115,128336,110340
5043,495,115,128347,110371
5045,495,115,128358,110372
5048,494,115,128353,110368
5050,493,115,128372,110374
5053,492,115,128380,110372
5055,493,115,128376,110388
5058,494,115,128390,110374
5060,496,115,128407,110387
5062,499,115,128412,110381
5065,503,115,128415,110395
5067,503,115,128438,110396
5070,504,115,128431,110385
5072,504,115,128434,110391
5075,505,115,128439,110391
5078,507,115,128457,110400
5080,508,115,128462,110394
5083,507,115,128468,110402
5085,507,115,128473,110393
5088,508,115,128479,110408
5090,508,115,128498,110407
5093,507,115,128496,110410
5095,504,115,128505,110410
5098,501,115,128521,110417
5100,497,115,128517,110418
5102,496,116,128532,110418
5105,496,115,128540,110416
5107,497,116,128536,110417
5110,498,115,128552,110424
5112,501,115,128554,110425
5115,507,115,128565,110425
5117,523,116,128573,110438
5120,532,115,128573,110430
5123,553,115,128591,110431
5125,577,116,128594,110431
5128,634,115,128606,110432
5130,653,116,128609,110442
5133,658,116,128609,110459
5135,650,116,128625,110444
5138,639,116,128638,110444
5140,592,116,128643,110453
5142,575,116,128657,110460
5145,545,116,128657,110454
5147,536,116,128665,110461
5150,532,116,128677,110453
5152,531,116,128682,110466
5155,529,116,128688,110466
5157,518,116,128699,110469
5159,511,116,128699,110480
5163,504,116,128711,110473
5165,500,116,128714,110473
5168,499,116,128736,110482
5170,501,116,128736,110482
5173,504,116,128737,110480
5175,508,116,128742,110487
5178,511,116,128750,110487
5180,515,116,128765,110487
5182,515,116,128765,110492
5185,514,116,128777,110494
5187,515,116,128773,110494
5190,514,116,128788,110496
5192,514,116,128786,110501
5195,514,116,128791,110501
5197,514,116,128802,110500
5199,514,116,128800,110500
5202,514,116,128814,110507
5204,513,116,128814,110514
5208,512,116,128822,110509
5210,513,116,128833,110509
5213,514,116,128842,110515
5215,514,116,128842,110519
5218,515,116,128845,110523
5220,515,116,128857,110523
5222,516,116,128866,110521
5225,516,116,128866,110518
5227,516,116,128859,110521
5230,517,116,128878,110521
5232,518,116,128883,110521
5235,518,116,128891,110529
5237,519,116,128891,110521
5239,520,116,128894,110535
5242,521,116,128904,110535
5244,521,116,128921,110538
5248,523,116,128921,110541
5250,523,116,128917,110539
5253,523,116,128922,110544
5255,524,116,128935,110544
5258,524,116,128952,110548
5260,525,116,128952,110544
5262,524,116,128920,110548
5265,524,116,128963,110548
5267,523,116,128971,110552
5270,523,116,128971,110557
5272,523,116,128971,110557
5275,523,116,128971,110558
5277,523,116,128979,110558
5279,523,116,128987,110566
5282,525,117,128987,110564
5284,527,116,128996,110565
5287,527,116,129009,110565
5289,528,116,129018,110564
5293,530,116,129018,110571
5295,531,116,129014,110575
5298,530,116,129019,110575
5300,530,116,129034,110575
5302,529,117,129043,110580
5305,528,117,129043,110590
5307,529,117,129047,110588
5310,529,117,129048,110593
5312,529,117,129051,110583
5315,530,117,129067,110583
5317,531,117,129067,110591
5319,534,117,129066,110591
5322,535,117,129072,110596
5324,537,117,129076,110591
5327,538,117,129076,110595
5329,539,117,129077,110598
5332,541,117,129086,110598
5335,543,117,129086,110596
5338,546,117,129087,110593
5340,547,117,129104,110594
5342,548,117,129079,110594
5345,549,117,129080,110592
5347,550,117,129080,110587
5350,550,117,129059,110582
5352,552,117,129043,110568
5355,552,117,129040,110568
5357,552,117,128997,110561
5359,553,117,128997,110537
5362,553,117,128954,110537
5364,552,117,128908,110520
5367,551,117,128859,110507
5369,552,117,128810,110478
5372,553,117,128746,110455
5374,555,118,128682,110429
5378,556,117,128607,110412
5380,557,117,128513,110375
5382,558,118,128417,110340
5385,558,117,128298,110302
5387,557,117,128187,110253
5390,555,117,128067,110215
5392,553,117,127922,110173
5395,552,118,127784,110129
5397,551,117,127620,110063
5399,549,117,127460,110007
5402,547,117,127303,109957
5404,545,117,127129,109907
5407,538,117,126971,109851
5409,533,118,126818,109786
5412,529,117,126661,109739
5414,524,117,126525,109694
5417,519,117,126389,109644
5420,510,117,126253,109604
5422,506,118,126128,109556
5425,500,118,125985,109503
5427,497,118,125868,109462
5430,494,118,125766,109430
5432,490,117,125637,109386
5435,487,118,125544,109359
5437,483,117,125440,109320
5439,480,117,125349,109287
5442,474,117,125248,109265
5444,470,117,125167,109243
5447,467,117,125082,109210
5449,465,118,125020,109203
5452,464,118,124953,109182
5454,463,117,124885,109167
5457,463,117,124843,109156
5459,464,117,124814,109144
5462,465,117,124783,109143
5465,465,117,124749,109132
5467,465,117,124714,109129
5470,465,117,124708,109135
5472,466,118,124695,109126
5475,468,118,124702,109129
5477,471,118,124697,109141
5479,472,117,124691,109152
5482,472,118,124691,109144
5484,472,117,124707,109151
5487,472,117,124730,109163
5489,473,118,124723,109161
5492,474,118,124743,109175
5494,476,118,124756,109187
5497,479,118,124778,109198
5499,482,118,124793,109202
5501,483,118,124824,109216
5505,483,118,124850,109226
5507,483,118,124873,109237
5510,485,118,124891,109248
5512,486,118,124921,109258
5515,487,118,124947,109261
5517,487,118,124981,109278
5519,488,118,125010,109290
5522,489,118,125041,109297
5524,490,118,125069,109308
5527,490,118,125099,109322
5529,491,118,125133,109336
5532,491,118,125170,109339
5534,493,118,125196,109360
5537,495,118,125238,109366
5539,497,118,125268,109378
5541,499,118,125304,109382
5544,501,118,125330,109397
5547,504,119,125364,109406
5550,506,119,125364,109401
5552,509,118,125433,109427
5555,512,118,125454,109440
5557,516,119,125487,109452
5559,518,119,125520,109462
5562,519,119,125549,109473
5564,522,119,125585,109470
5567,523,119,125609,109491
5569,524,119,125643,109500
5572,524,119,125669,109503
5574,524,119,125695,109517
5577,525,119,125720,109517
5579,524,119,125760,109539
5581,523,119,125784,109544
5584,521,119,125814,109546
5586,519,119,125838,109562
5590,516,119,125864,109577
5592,514,119,125906,109586
5595,513,119,125938,109594
5597,513,119,125971,109596
5599,514,119,125996,109608
5602,515,119,126018,109620
5604,514,119,126055,109623
5607,513,119,126066,109631
5609,512,119,126092,109643
5612,512,119,126118,109647
5614,509,119,126141,109662
5617,508,119,126141,109684
5619,507,119,126190,109666
5621,507,119,126208,109666
5624,507,119,126238,109685
5626,507,119,126242,109683
5629,507,120,126251,109702
5632,508,120,126284,109693
5635,508,120,126298,109706
5637,509,119,126309,109709
5639,511,120,126324,109709
5642,513,120,126341,109725
5644,513,120,126341,109719
5647,512,120,126364,109726
5649,512,120,126368,109725
5652,511,120,126378,109734
5654,511,120,126377,109727
5657,512,120,126377,109730
5659,512,120,126379,109737
5661,512,120,126373,109737
5664,513,120,126382,109733
5666,513,120,126382,109715
5669,514,120,126369,109726
5671,514,120,126371,109726
5675,514,120,126371,109729
5677,513,120,126363,109724
5679,513,120,126364,109724
5682,510,120,126357,109720
5684,508,120,126357,109717
5687,507,120,126351,109710
5689,507,120,126336,109710
5692,506,120,126331,109699
5694,506,120,126331,109703
5697,506,120,126310,109701
5699,505,120,126285,109701
5701,505,120,126287,109699
5704,504,120,126278,109683
5706,503,120,126278,109686
5709,503,120,126249,109679
5711,504,120,126237,109679
5714,504,120,126226,109672
5716,506,120,126226,109659
5719,506,120,126222,109660
5722,507,120,126201,109660
5724,507,120,126185,109663
5727,508,120,126185,109646
5729,508,120,126175,109654
5732,508,120,126179,109653
5734,508,120,126146,109653
5737,508,120,126160,109648
5739,507,120,126160,109650
5741,506,120,126134,109649
5744,505,120,126170,109649
5746,503,120,126169,109652
5749,500,121,126169,109645
5751,498,120,126176,109646
5754,499,121,126171,109657
5756,499,120,126182,109657
5758,500,120,126195,109659
5762,501,120,126195,109661
5764,501,120,126208,109662
5767,500,120,126203,109672
5769,499,120,126216,109670
5772,498,120,126218,109670
5774,498,120,126261,109679
5777,498,120,126261,109683
5779,499,121,126265,109689
5781,499,120,126284,109697
5784,500,121,126299,109697
5786,501,121,126330,109703
5789,501,121,126330,109711
5791,502,120,126344,109726
5794,503,121,126359,109726
5796,504,121,126404,109729
5798,506,121,126404,109735
5801,508,121,126427,109745
5804,508,121,126443,109746
5807,508,121,126484,109746
5809,508,121,126510,109767
5812,509,121,126510,109771
5814,509,121,126538,109771
5817,511,121,126561,109785
5819,513,121,126597,109800
5821,515,121,126617,109800
5824,517,121,126674,109807
5826,519,121,126674,109818
5829,521,121,126697,109834
5831,521,121,126731,109841
5834,522,121,126756,109841
5836,523,121,126798,109848
5838,524,121,126798,109873
5841,525,121,126833,109873
5843,527,121,126856,109874
5847,527,121,126887,109889
5849,529,121,126901,109892
5852,530,121,126941,109911
5854,531,122,126975,109911
5857,531,121,126991,109919
5859,531,121,127014,109928
5861,531,121,127047,109946
5864,530,121,127080,109946
5866,526,121,127091,109952
5869,524,121,127108,109947
5871,524,121,127136,109958
5874,523,122,127160,109964
5876,523,121,127184,109977
5878,523,121,127205,109981
5881,521,121,127213,109989
5883,520,122,127233,109990
5886,516,121,127258,110001
5889,513,121,127282,110005
5892,511,121,127288,110013
5894,508,122,127320,110015
5897,505,121,127335,110025
5899,500,121,127359,110028
5901,498,121,127383,110040
5904,495,121,127386,110050
5906,493,122,127413,110050
5909,491,121,127439,110054
5911,490,121,127447,110063
5914,488,121,127471,110069
5916,485,121,127485,110071
5918,483,121,127490,110078
5921,482,121,127504,110083
5923,480,121,127522,110086
5926,478,121,127546,110094
5928,476,121,127569,110100
5932,475,121,127567,110097
5934,474,121,127584,110096
5937,475,121,127603,110107
5939,476,121,127604,110113
5941,475,121,127613,110112
5944,474,121,127631,110112
5946,474,121,127649,110131
5949,475,121,127657,110124
5951,474,121,127675,110134
5954,474,121,127672,110136
5956,474,121,127687,110134
5958,474,121,127707,110139
5961,475,121,127723,110139
5963,475,121,127736,110147
5966,476,121,127757,110153
5968,476,121,127756,110156
5971,476,121,127782,110165
5974,478,121,127776,110167
5977,479,121,127788,110170
5979,480,121,127803,110171
5981,480,121,127818,110173
5984,480,121,127824,110186
5986,480,121,127843,110181
5989,481,121,127854,110188
5991,481,121,127860,110190
5994,481,121,127878,110191
5996,481,121,127880,110203
5998,481,121,127905,110204
6001,481,121,127911,110203
6003,481,121,127919,110212
6006,480,121,127930,110218
6008,480,121,127946,110224
6011,480,121,127960,110225
6013,481,121,127967,110230
6017,483,121,127977,110229
6019,484,121,127994,110239
6021,487,121,127996,110234
6024,490,121,128005,110239
6026,494,121,128021,110245
6029,496,121,128022,110219
6031,499,121,128037,110246
6034,501,121,128047,110252
6036,504,122,128058,110256
6038,505,122,128071,110259
6041,505,122,128077,110266
6043,506,121,128094,110271
6046,506,121,128094,110271
6048,504,122,128101,110275
6051,503,121,128101,110263
6053,502,121,128125,110278
6056,501,121,128131,110277
6059,501,122,128138,110287
6061,500,122,128160,110282
6064,499,121,128168,110286
6066,499,121,128177,110294
6069,498,122,128189,110294
6071,497,121,128188,110299
6074,496,121,128210,110298
6076,495,121,128218,110311
6078,493,121,128220,110308
6081,491,121,128238,110303
6083,488,121,128238,110310
6086,485,121,128261,110314
6088,484,121,128263,110312
6091,484,121,128272,110320
6093,485,121,128280,110325
6096,486,121,128280,110332
6098,488,121,128301,110325
6100,489,121,128311,110325
6104,490,121,128321,110341
6106,492,121,128333,110331
6109,492,122,128330,110337
6111,493,121,128335,110344
6114,493,121,128351,110365
6116,494,121,128357,110345
6118,494,121,128368,110345
6121,495,121,128374,110356
6123,495,121,128374,110348
6126,495,121,128389,110351
6128,495,121,128384,110359
6131,494,121,128394,110358
6133,493,121,128394,110356
6136,492,121,128404,110361
6138,491,121,128417,110361
6140,489,121,128427,110378
6144,487,122,128437,110372
6146,487,122,128451,110373
6149,487,122,128466,110373
6151,489,121,128463,110384
6154,490,122,128478,110384
6156,490,121,128484,110390
6158,489,121,128484,110387
6161,489,121,128502,110394
6163,488,121,128502,110394
6166,487,121,128517,110389
6168,487,121,128524,110389
6171,487,121,128530,110391
6173,487,121,128530,110402
6176,486,121,128539,110400
6178,486,121,128555,110400
6180,484,121,128569,110406
6183,482,121,128574,110407
6185,480,121,128574,110410
6189,479,121,128569,110403
6191,479,121,128581,110403
6194,478,121,128612,110424
6196,474,121,128612,110431
6198,470,121,128619,110425
6201,467,121,128630,110425
6203,465,121,128638,110437
6206,464,121,128645,110434
6208,464,121,128645,110437
6211,464,121,128656,110440
6213,469,121,128663,110442
6216,475,121,128663,110440
6218,483,121,128662,110440
6220,494,121,128687,110446
6223,535,121,128702,110448
6225,569,121,128702,110456
6228,601,121,128701,110456
6231,612,121,128701,110446
6234,612,121,128719,110446
6236,595,121,128719,110457
6238,570,121,128734,110460
6241,553,121,128747,110460
6243,533,121,128757,110458
6246,505,121,128757,110472
6248,497,121,128758,110476
6251,494,121,128769,110472
6253,492,121,128744,110472
6256,487,121,128788,110480
6258,472,121,128788,110480
6260,464,121,128765,110485
6263,460,121,128805,110485
6265,457,121,128811,110487
6268,454,121,128811,110497
6270,454,121,128822,110498
6274,455,121,128828,110498
6276,457,121,128842,110495
6278,459,121,128842,110503
6281,462,121,128847,110493
6283,462,121,128854,110492
6286,462,121,128858,110492
6288,462,121,128877,110506
6291,463,121,128877,110505
6293,464,121,128868,110505
6296,468,121,128883,110511
6298,471,121,128893,110518
6300,473,121,128886,110518
6303,476,121,128910,110515
6305,479,121,128910,110522
6308,483,121,128904,110520
6310,484,121,128915,110524
6313,486,121,128918,110524
6316,487,121,128950,110523
6318,490,121,128950,110523
6321,491,121,128934,110523
6323,492,121,128936,110525
6326,493,121,128944,110528
6328,494,121,128944,110530
6331,495,121,128955,110529
6333,496,121,128968,110537
6336,498,121,128965,110537
6338,499,121,128976,110545
6340,499,121,128976,110536
6343,499,121,128981,110540
6345,498,121,128973,110543
6348,498,121,128990,110545
6350,498,121,128994,110543
6353,497,121,129006,110550
6355,496,121,129017,110552
6358,495,121,129006,110552
6361,492,121,129019,110561
6363,491,121,129024,110557
6366,489,121,129018,110551
6368,488,121,129036,110556
6371,488,121,129035,110558
6373,487,121,129042,110558
6376,486,120,129046,110560
6378,485,120,129033,110560
6380,484,121,129055,110565
6383,482,120,129058,110567
6385,481,120,129066,110571
6388,480,121,129062,110574
6390,480,120,129073,110569
6393,479,120,129077,110577
6395,478,120,129082,110573
6397,478,120,129089,110574
6401,478,120,129087,110576
6403,478,120,129098,110579
6406,480,121,129102,110585
6408,481,120,129108,110585
6411,483,120,129108,110590
6413,486,120,129125,110594
6416,489,120,129138,110590
6418,493,120,129130,110595
6420,493,120,129133,110594
6423,492,120,129139,110591
6425,493,120,129138,110595
6428,493,120,129149,110599
6430,493,120,129144,110596
6433,494,120,129134,110598
6435,494,120,129145,110592
6437,494,120,129146,110597
6440,492,120,129146,110593
6443,490,120,129130,110597
6446,489,120,129146,110588
6448,489,120,129129,110588
6451,489,120,129134,110590
6453,490,120,129118,110582
6456,491,120,129095,110578
6458,492,120,129088,110576
6460,494,120,129062,110555
6463,496,120,129043,110549
6465,495,120,129001,110535
6468,495,120,128968,110520
6470,495,120,128922,110505
6473,496,120,128867,110479
6475,497,120,128822,110462
6477,498,120,128752,110437
6480,499,120,128680,110421
6482,498,120,128599,110390
6486,497,120,128514,110356
6488,497,120,128412,110326
6491,497,120,128303,110284
6493,497,120,128192,110243
6496,498,120,128057,110200
6498,498,120,127930,110157
6500,497,120,127799,110112
6503,496,120,127642,110057
6505,494,119,127493,110007
6508,493,119,127343,109960
6510,490,120,127184,109908
6513,488,119,127042,109848
6515,485,120,126889,109803
6517,482,119,126754,109755
6520,480,119,126620,109713
6522,478,119,126494,109666
6525,472,119,126362,109620
6528,470,119,126247,109578
6531,467,119,126130,109538
6533,466,120,126009,109495
6536,466,119,125903,109462
6538,466,120,125802,109434
6540,465,119,125701,109395
6543,466,120,125608,109367
6545,466,120,125525,109332
6548,466,120,125437,109301
6550,466,119,125353,109277
6553,467,120,125285,109277
6555,467,120,125224,109246
6557,467,119,125224,109218
6560,466,119,125101,109212
6562,466,119,125063,109202
6565,466,120,125021,109186
6567,466,119,124997,109180
6571,466,119,124997,109179
6573,466,119,124938,109174
6576,465,120,124915,109174
6578,466,119,124914,109171
6580,466,119,124895,109161
6583,468,120,124885,109177
6585,470,120,124898,109173
6588,471,120,124895,109182
6590,476,119,124892,109202
6593,478,120,124904,109189
6595,480,119,124916,109193
6597,481,120,124933,109193
6600,483,119,124941,109217
6602,483,120,124968,109216
6605,483,119,124987,109224
6607,483,119,125004,109224
6610,484,120,125032,109256
6612,485,120,125050,109258
6616,486,120,125050,109271
6618,487,119,125104,109284
6620,488,120,125129,109284
6623,487,119,125162,109297
6625,487,119,125162,109307
6628,486,120,125192,109309
6630,485,119,125238,109332
6633,485,120,125274,109341
6635,487,119,125274,109350
6637,488,120,125312,109364
6640,489,119,125375,109379
6642,492,120,125404,109394
6645,494,120,125444,109399
6647,496,120,125471,109414
6650,497,120,125516,109422
6652,501,120,125540,109433
6656,503,120,125540,109440
6658,507,120,125611,109448
6660,509,120,125639,109448
6663,510,120,125683,109476
6665,511,120,125683,109492
6668,510,120,125726,109508
6670,510,120,125779,109508
6673,510,120,125824,109517
6675,511,120,125824,109534
6677,511,120,125852,109547
6680,511,120,125922,109547
6682,512,120,125956,109560
6685,512,120,125995,109577
6687,513,120,125995,109592
6690,513,120,126058,109595
6692,513,120,126090,109618
6695,513,120,126090,109628
6697,513,120,126148,109628
6700,512,120,126196,109642
6703,511,120,126228,109657
6705,511,120,126228,109667
6708,511,120,126285,109678
6710,511,120,126285,109692
6713,511,120,126353,109692
6715,514,120,126353,109708
6717,515,120,126376,109708
6720,516,120,126430,109708
6722,517,120,126456,109725
6725,518,120,126456,109737
6727,518,120,126481,109745
6730,518,120,126501,109755
6732,518,120,126508,109755
6735,518,120,126556,109757
6737,517,120,126556,109772
6739,515,120,126539,109776
6743,514,120,126605,109776
6745,512,120,126607,109776
6748,510,120,126607,109783
6750,509,120,126623,109781
6753,508,120,126626,109781
6755,508,120,126629,109791
6757,508,120,126629,109786
6760,508,120,126631,109793
6762,507,120,126638,109797
6765,507,120,126637,109797
6767,507,120,126643,109793
6770,507,120,126643,109782
6772,508,120,126634,109786
6775,510,120,126639,109786
6777,511,120,126625,109788
6779,513,120,126625,109788
6782,513,120,126611,109779
6785,516,120,126598,109779
6788,517,120,126598,109779
6790,518,120,126576,109778
6793,521,120,126576,109766
6795,521,120,126566,109761
6797,524,120,126554,109761
6800,524,120,126535,109753
6802,525,120,126547,109743
6805,526,120,126519,109743
6807,526,120,126507,109741
6810,526,120,126493,109741
6812,527,120,126465,109740
6815,527,120,126465,109724
6817,528,120,126457,109714
6819,528,120,126436,109714
6822,526,120,126424,109712
6824,526,120,126438,109702
6828,525,120,126403,109700
6830,525,120,126400,109696
6833,525,120,126393,109696
6835,525,120,126376,109685
6837,524,120,126370,109684
6840,523,120,126373,109686
6842,521,120,126360,109685
6845,520,120,126365,109687
6847,519,120,126350,109680
6850,518,120,126362,109686
6852,517,120,126360,109690
6855,515,120,126350,109684
6857,514,120,126356,109690
6859,514,120,126372,109692
6862,515,120,126375,109694
6864,515,120,126388,109699
6867,514,120,126383,109694
6870,513,120,126393,109698
6873,512,120,126403,109702
6875,510,120,126408,109707
6877,508,120,126425,109706
6880,506,120,126440,109717
6882,504,120,126460,109708
6885,502,120,126479,109733
6887,500,120,126490,109730
6890,499,120,126508,109742
6892,498,120,126530,109747
6895,496,120,126543,109756
6897,496,120,126567,109761
6899,496,120,126586,109767
6902,496,120,126599,109774
6904,495,120,126627,109779
6907,495,120,126653,109788
6909,494,120,126677,109794
6913,495,120,126704,109800
6915,496,120,126720,109811
6917,496,120,126740,109812
6920,496,120,126772,109817
6922,497,120,126781,109827
6925,498,120,126820,109837
6927,498,120,126828,109844
6930,497,120,126857,109856
6932,497,120,126888,109853
6935,498,120,126908,109869
6937,499,120,126943,109873
6939,498,120,126956,109884
6942,497,120,126990,109890
6944,497,120,127011,109899
6947,497,120,127034,109910
6949,497,120,127061,109913
6952,497,120,127079,109919
6955,497,119,127104,109930
6957,495,120,127136,109950
6960,492,119,127158,109946
6962,491,119,127181,109957
6965,490,120,127207,109956
6967,490,120,127228,109969
6970,492,120,127246,109985
6972,493,119,127268,109985
6975,495,119,127289,109992
6977,497,119,127312,109998
6979,497,119,127331,110003
6982,496,119,127352,110014
6984,495,120,127379,110013
6987,494,120,127390,110018
6989,494,119,127419,110032
6992,494,119,127429,110045
6994,495,119,127446,110042
6996,495,119,127466,110028
7000,494,119,127484,110053
7002,493,119,127500,110062
7005,491,119,127525,110066
7007,489,119,127544,110067
7010,489,119,127556,110081
7012,489,119,127567,110083
7015,490,119,127592,110088
7017,492,120,127596,110098
7019,494,119,127622,110099
7022,497,119,127632,110106
7024,498,119,127653,110106
7027,498,120,127662,110114
7029,499,119,127675,110118
7032,499,119,127687,110118
7034,501,119,127707,110131
7036,501,119,127707,110121
7040,500,119,127726,110136
7042,500,119,127736,110133
7045,501,119,127754,110140
7047,501,119,127762,110136
7050,501,119,127779,110141
7052,502,119,127787,110150
7055,504,120,127787,110151
7057,505,119,127823,110172
7059,507,120,127829,110164
7062,508,120,127847,110163
7064,511,120,127853,110173
7067,513,120,127870,110172
7069,515,120,127880,110186
7072,517,120,127888,110186
7074,518,120,127889,110193
7076,518,120,127889,110182
7079,518,120,127920,110192
7081,518,120,127928,110192
7085,519,119,127942,110198
7087,518,119,127951,110203
7090,518,119,127951,110220
7092,517,120,127967,110208
7095,517,120,127975,110208
7097,516,120,127991,110220
7099,516,120,128007,110219
7102,516,120,128010,110224
7104,515,120,128023,110225
7107,516,120,128023,110235
7109,519,120,128037,110223
7112,520,120,128038,110236
7114,523,120,128042,110234
7116,524,120,128042,110233
7119,526,120,128064,110241
7121,528,120,128071,110241
7124,530,120,128088,110240
7127,530,120,128088,110240
7130,529,120,128090,110253
7132,529,120,128111,110250
7135,528,120,128122,110250
7137,528,120,128134,110257
7139,528,120,128134,110261
7142,528,120,128145,110268
7144,528,120,128157,110268
7147,527,120,128175,110268
7149,526,120,128171,110267
7152,526,120,128180,110267
7154,524,120,128187,110275
7156,523,120,128202,110275
7159,521,120,128210,110274
7161,519,120,128210,110285
7164,518,120,128233,110285
7166,517,120,128233,110290
7170,517,120,128243,110296
7172,517,120,128248,110296
7175,517,120,128258,110297
7177,517,120,128258,110296
7179,517,120,128265,110307
7182,516,120,128287,110307
7184,514,120,128300,110301
7187,513,120,128302,110313
7189,510,120,128302,110311
7192,510,120,128314,110315
7194,510,120,128317,110315
7196,510,120,128336,110318
7199,511,120,128340,110318
7201,511,120,128353,110318
7204,510,120,128353,110324
7206,509,120,128364,110324
7209,509,120,128377,110331
7212,509,120,128377,110332
7215,510,120,128383,110332
7217,511,120,128398,110332
7219,512,120,128405,110334
7222,512,120,128405,110341
7224,513,120,128413,110344
7227,513,120,128395,110344
7229,513,120,128437,110344
7232,513,120,128439,110353
7234,514,120,128439,110358
7236,513,120,128452,110357
7239,513,120,128462,110357
7241,511,120,128462,110363
7244,507,120,128471,110367
7246,502,120,128479,110363
7249,500,120,128492,110363
7251,497,120,128492,110373
7255,496,120,128505,110371
7257,496,120,128518,110371
7259,498,120,128527,110376
7262,505,120,128527,110382
7264,513,120,128526,110380
7267,513,120,128537,110385
7269,525,120,128542,110388
7272,557,120,128558,110388
7274,577,120,128558,110397
7276,635,120,128561,110397
7279,653,120,128570,110392
7281,663,120,128583,110399
7284,650,120,128583,110399
7286,626,120,128591,110407
7289,609,120,128601,110407
7291,584,120,128608,110402
7294,564,120,128608,110412
7297,550,120,128634,110413
7299,539,120,128627,110413
7302,537,120,128646,110413
7304,534,120,128646,110415
7307,529,120,128650,110414
7309,516,120,128662,110423
7312,510,120,128689,110421
7314,505,120,128674,110418
7316,502,120,128674,110419
7319,500,120,128688,110432
7321,497,120,128692,110431
7324,497,120,128698,110439
7326,498,120,128709,110429
7329,498,120,128711,110435
7331,497,120,128730,110439
7334,496,120,128719,110443
7336,496,120,128737,110446
7339,496,120,128739,110444
7342,497,120,128754,110447
7344,499,120,128760,110452
7347,499,120,128762,110453
7349,500,120,128771,110455
7352,500,120,128788,110456
7354,501,120,128790,110461
7356,501,120,128788,110459
7359,500,120,128781,110470
7361,499,120,128803,110465
7364,499,120,128806,110467
7366,500,120,128819,110474
7369,501,120,128808,110476
7371,502,120,128833,110472
7374,504,120,128835,110473
7376,506,120,128832,110479
7378,505,120,128843,110479
7382,505,120,128847,110479
7384,505,120,128862,110483
7387,505,120,128866,110485
7389,506,120,128871,110491
7392,505,120,128877,110491
7394,504,119,128883,110495
7396,503,119,128883,110489
7399,501,119,128899,110496
7401,499,120,128892,110495
7404,498,120,128901,110494
7406,498,120,128899,110499
7409,500,120,128921,110502
7411,501,120,128927,110497
7414,502,120,128925,110506
7416,504,120,128932,110513
7418,505,119,128938,110512
7421,506,119,128946,110510
7424,506,120,128946,110514
7427,506,120,128946,110521
7429,506,120,128958,110521
7432,507,119,128963,110522
7434,508,120,128975,110529
7436,508,119,128975,110526
7439,508,120,128978,110516
7441,507,119,128992,110526
7444,506,119,128994,110532
7446,505,120,128999,110528
7449,506,120,129005,110537
7451,506,119,129012,110534
7454,508,119,129011,110543
7456,510,120,129019,110539
7458,510,119,129029,110540
7461,510,120,129028,110545
7463,510,119,129039,110546
7467,510,119,129038,110552
7469,510,120,129046,110550
7472,511,119,129056,110551
7474,510,119,129054,110556
7476,511,119,129054,110552
7479,512,119,129059,110559
7481,513,119,129072,110559
7484,512,120,129070,110564
7486,513,120,129069,110564
7489,514,120,129072,110557
7491,515,120,129066,110562
7494,517,119,129068,110558
7496,520,120,129064,110558
7498,522,119,129057,110553
7501,523,120,129039,110545
7503,524,120,129041,110546
7506,525,120,129020,110534
7508,528,120,128994,110528
7512,531,120,128978,110528
7514,534,120,128939,110505
7516,535,120,128902,110488
7519,535,120,128868,110475
7521,535,120,128812,110451
7524,536,120,128753,110438
7526,536,120,128698,110407
7529,536,120,128626,110379
7531,536,120,128537,110357
7534,537,120,128448,110331
7536,539,120,128348,110293
7538,540,120,128241,110241
7541,544,120,128122,110203
7543,547,120,127998,110156
7546,548,120,127860,110118
7548,550,120,127726,110076
7552,551,120,127576,110076
7554,550,120,127428,109966
7556,549,120,127428,109912
7559,547,120,127109,109856
7561,544,120,126962,109806
7564,537,120,126819,109760
7566,533,120,126672,109708
7569,528,120,126545,109664
7571,524,120,126407,109610
7574,521,120,126276,109610
7576,514,120,126163,109528
7578,511,120,126043,109488
7581,505,120,125933,109446
7583,503,120,125819,109413
7586,501,120,125720,109376
7588,499,120,125620,109338
7591,499,120,125516,109338
7593,496,120,125433,109276
7596,494,120,125433,109247
7599,492,120,125268,109225
7601,490,120,125204,109225
7604,488,120,125143,109198
7606,487,120,125143,109177
7609,487,120,125086,109161
7611,486,120,124984,109160
7614,485,120,124951,109160
7616,485,120,124927,109144
7618,485,120,124927,109140
7621,486,120,124871,109134
7623,487,120,124853,109134
7626,487,120,124848,109137
7628,488,120,124847,109136
7631,488,120,124851,109136
7633,488,120,124849,109149
7635,488,120,124851,109149
7639,489,120,124864,109150
7641,490,120,124864,109163
7644,490,120,124879,109163
7646,491,120,124879,109180
7649,492,120,124907,109185
7651,493,120,124951,109185
7654,494,120,124978,109204
7656,496,120,124978,109218
7658,496,120,124994,109229
7661,496,120,125039,109229
7663,496,120,125077,109246
7666,495,120,125103,109258
7668,496,120,125103,109270
7671,497,120,125141,109286
7673,498,120,125193,109286
7675,499,120,125236,109298
7678,501,120,125271,109311
7681,502,120,125302,109311
7684,503,120,125302,109344
7686,503,120,125370,109344
7689,504,120,125415,109367
7691,506,120,125415,109373
7694,508,120,125446,109390
7696,510,120,125510,109390
7698,512,120,125554,109404
7701,513,120,125554,109429
7703,514,120,125589,109441
7706,515,120,125631,109441
7708,516,121,125701,109448
7711,516,120,125738,109459
7713,516,120,125738,109484
7715,517,120,125778,109499
7718,517,121,125838,109499
7720,518,120,125838,109521
7724,518,120,125875,109534
7726,518,120,125913,109544
7729,520,121,125948,109560
7731,521,120,125993,109579
7734,522,121,126007,109579
7736,523,121,126099,109581
7738,523,121,126099,109608
7741,523,121,126133,109621
7743,524,121,126170,109626
7746,525,121,126240,109626
7748,526,121,126240,109649
7751,528,121,126275,109649
7753,528,121,126350,109670
7755,530,121,126350,109684
7758,531,121,126380,109684
7760,531,121,126404,109701
7763,531,121,126428,109718
7766,531,121,126450,109721
7769,533,121,126481,109721
7771,535,121,126513,109734
7774,538,121,126539,109753
7776,538,121,126562,109757
7778,540,121,126583,109757
7781,540,121,126618,109758
7783,541,121,126618,109763
7786,541,121,126632,109766
7788,540,121,126651,109787
7791,540,121,126667,109787
7793,539,121,126673,109787
7795,538,121,126686,109781
7798,537,121,126693,109781
7800,535,121,126698,109789
7803,534,121,126695,109793
7805,534,121,126702,109791
7809,534,121,126708,109796
7811,532,121,126717,109803
7814,531,121,126721,109798
7816,529,121,126703,109799
7818,529,121,126717,109788
7821,528,121,126698,109790
7823,528,121,126708,109789
7826,527,121,126700,109784
7828,526,121,126685,109790
7831,524,121,126692,109786
7833,523,121,126673,109780
7835,522,121,126669,109772
7838,521,121,126653,109769
7840,519,121,126634,109770
7843,516,121,126626,109761
7845,513,121,126618,109755
7848,511,121,126594,109757
7851,508,121,126589,109747
7854,506,121,126569,109748
7856,504,121,126551,109735
7858,503,121,126542,109734
7861,502,121,126516,109723
7863,502,121,126509,109720
7866,501,121,126500,109713
7868,501,121,126479,109705
7871,500,121,126461,109713
7873,500,121,126457,109700
7875,499,121,126451,109694
7878,495,121,126435,109689
7880,493,121,126415,109679
7883,492,121,126418,109677
7885,492,121,126405,109682
7888,493,121,126405,109679
7890,494,121,126402,109680
7894,495,121,126391,109678
7896,496,121,126397,109675
7898,496,121,126395,109675
7901,496,121,126399,109681
7903,494,121,126394,109683
7906,493,121,126403,109687
7908,492,121,126409,109682
7911,492,121,126412,109683
7913,492,121,126437,109692
7915,493,121,126425,109695
7918,493,121,126437,109701
7920,493,121,126455,109707
7923,491,121,126475,109709
7925,491,121,126476,109717
7928,491,121,126503,109718
7930,492,121,126515,109730
7933,494,121,126535,109733
7936,495,121,126554,109743
7938,495,121,126576,109747
7941,494,121,126588,109751
7943,494,121,126609,109758
7946,494,121,126628,109763
7948,495,121,126648,109778
7951,494,121,126675,109774
7953,494,121,126698,109787
7955,494,121,126722,109788
7958,494,121,126738,109801
7960,494,121,126757,109808
7963,493,121,126782,109815
7965,492,121,126807,109825
7968,493,121,126845,109823
7970,494,121,126865,109845
7973,495,121,126900,109852
7975,496,121,126927,109859
7977,499,121,126946,109870
7981,500,121,126970,109882
7983,499,121,127006,109887
7986,499,121,127027,109897
7988,499,121,127052,109900
7991,498,121,127073,109908
7993,498,121,127113,109902
7995,497,121,127139,109930
7998,496,121,127164,109937
8000,496,121,127187,109947
8003,496,121,127217,109957
8005,495,121,127241,109960
8008,494,121,127267,109970
8010,495,121,127292,109977
8013,495,121,127311,109979
8015,497,121,127329,109988
8017,499,121,127363,109996
8020,500,121,127378,110003
8023,501,121,127398,110010
8026,502,121,127416,110016
8028,503,121,127440,110021
8031,504,121,127451,110021
8033,504,121,127472,110039
8035,504,121,127472,110029
8038,503,121,127507,110048
8040,502,121,127520,110052
8043,501,121,127548,110066
8045,500,121,127563,110055
8048,500,121,127579,110064
8050,501,121,127594,110071
8053,502,121,127613,110071
8055,503,121,127620,110081
8057,503,121,127641,110083
8060,502,121,127658,110091
8062,503,121,127669,110086
8066,503,121,127683,110097
8068,504,121,127690,110119
8071,504,121,127712,110115
8073,505,121,127726,110120
8075,505,121,127736,110120
8078,503,121,127754,110121
8080,502,121,127754,110121
8083,500,121,127778,110136
8085,499,121,127787,110136
8088,498,121,127814,110135
8090,497,121,127814,110142
8093,496,121,127815,110138
8095,495,121,127842,110144
8097,493,121,127844,110158
8100,491,121,127864,110154
8102,490,121,127872,110165
8105,491,121,127887,110165
8108,492,121,127891,110165
8111,493,121,127909,110169
8113,495,121,127924,110176
8115,495,121,127924,110177
8118,494,121,127935,110180
8120,493,121,127935,110195
8123,493,121,127960,110187
8125,493,121,127969,110187
8128,494,121,127983,110197
8130,494,121,127983,110195
8133,493,121,127990,110201
8135,493,121,128006,110201
8137,493,121,128016,110207
8140,491,121,128016,110202
8142,491,121,128022,110211
8145,490,121,128038,110214
8147,490,121,128059,110214
8151,489,121,128077,110223
8153,487,121,128077,110218
8155,485,121,128081,110230
8158,485,121,128091,110230
8160,485,121,128116,110230
8163,485,121,128116,110240
8165,485,121,128112,110244
8168,485,121,128121,110247
8170,486,121,128136,110247
8173,487,121,128147,110251
8175,486,121,128147,110251
8177,484,121,128152,110255
8180,483,121,128180,110255
8182,482,121,128154,110255
8185,481,120,128154,110271
8187,481,120,128208,110271
8190,481,121,128208,110270
8193,482,121,128214,110270
8195,482,121,128233,110280
8198,486,121,128233,110277
8200,487,121,128247,110275
8203,489,121,128251,110275
8205,490,121,128257,110277
8208,491,121,128257,110280
8210,491,121,128262,110281
8213,490,120,128272,110281
8215,490,121,128294,110293
8217,489,120,128296,110295
8220,488,121,128296,110300
8222,489,121,128304,110303
8225,489,120,128309,110302
8227,489,121,128318,110308
8230,489,121,128338,110308
8232,489,121,128338,110307
8235,491,121,128344,110307
8238,492,120,128349,110313
8240,493,120,128362,110313
8243,494,121,128362,110324
8245,495,120,128385,110323
8248,496,121,128390,110323
8250,497,121,128390,110326
8253,499,121,128397,110326
8255,499,121,128422,110325
8257,501,120,128422,110336
8260,501,120,128425,110333
8262,501,120,128433,110340
8265,501,120,128466,110340
8267,500,120,128436,110348
8270,501,120,128456,110349
8272,501,120,128451,110346
8274,502,120,128481,110355
8278,503,120,128489,110355
8280,504,120,128484,110355
8283,504,120,128482,110356
8285,504,120,128495,110360
8288,504,120,128514,110360
8290,504,120,128529,110363
8293,502,120,128525,110370
8295,497,120,128525,110367
8297,491,120,128542,110364
8300,485,120,128548,110374
8302,478,120,128553,110379
8305,475,120,128557,110373
8307,472,120,128572,110376
8310,470,120,128578,110379
8312,470,120,128589,110382
8314,473,120,128600,110388
8317,489,120,128595,110393
8320,504,120,128610,110396
8323,524,120,128616,110395
8325,557,120,128627,110402
8328,584,120,128629,110401
8330,613,120,128633,110408
8333,610,120,128633,110407
8335,595,120,128651,110409
8337,575,120,128643,110405
8340,524,119,128662,110406
8342,501,120,128665,110415
8345,486,120,128661,110420
8347,477,119,128689,110409
8350,473,119,128688,110420
8352,467,119,128691,110420
8354,460,119,128697,110422
8357,453,119,128702,110421
8359,446,119,128723,110430
8363,441,119,128729,110428
8365,440,119,128743,110431
8368,440,119,128728,110430
8370,444,119,128744,110446
8373,445,119,128753,110440
8375,448,119,128750,110441
8377,451,119,128764,110451
8380,456,119,128771,110450
8382,456,119,128763,110449
8385,456,119,128780,110450
8387,457,119,128791,110448
8390,457,118,128794,110456
8392,459,118,128800,110456
8394,459,118,128794,110464
8397,459,118,128807,110463
8399,458,118,128816,110459
8402,457,118,128832,110461
8404,456,118,128822,110475
8408,456,118,128831,110471
8410,456,118,128836,110473
8413,457,118,128841,110479
8415,459,118,128845,110478
8417,458,118,128864,110483
8420,458,118,128870,110478
8422,459,118,128875,110486
8425,460,118,128870,110485
8427,461,118,128872,110484
8430,461,118,128889,110486
8432,461,118,128898,110490
8434,461,117,128898,110495
8437,461,117,128902,110499
8439,462,117,128912,110497
8442,462,117,128907,110502
8444,462,117,128920,110498
8448,463,117,128913,110497
8450,465,117,128924,110503
8453,467,117,128930,110505
8455,469,117,128934,110481
8457,472,117,128943,110510
8460,475,117,128942,110514
8462,476,117,128956,110518
8465,477,117,128960,110513
8467,479,117,128960,110518
8470,480,117,128975,110522
8472,482,117,128981,110521
8474,482,117,128986,110504
8477,481,117,128987,110525
8479,480,117,128985,110524
8482,478,117,128996,110529
8484,477,117,129009,110528
8487,476,117,129007,110533
8489,476,117,129011,110538
8493,476,117,129018,110532
8495,479,117,129027,110541
8497,482,117,129040,110542
8500,486,117,129036,110538
8502,490,117,129036,110545
8505,493,117,129052,110551
8507,495,117,129059,110551
8510,496,117,129059,110562
8512,499,117,129070,110553
8514,501,117,129074,110553
8517,505,117,129080,110556
8519,507,117,129081,110562
8522,508,117,129086,110556
8524,510,116,129091,110556
8527,511,116,129094,110564
8529,512,116,129094,110557
8532,513,116,129094,110573
8535,514,116,129098,110565
8537,515,116,129090,110565
8540,516,116,129095,110559
8542,517,116,129087,110552
8545,517,116,129083,110559
8547,518,116,129074,110553
8550,519,116,129070,110565
8552,521,116,129052,110546
8554,522,116,129046,110546
8557,525,116,129023,110537
8559,527,116,129023,110527
8562,527,116,129002,110511
8564,528,116,128922,110511
8567,530,116,128879,110474
8569,531,116,128879,110453
8572,531,116,128828,110432
8574,531,116,128710,110406
8577,531,116,128632,110406
8580,530,116,128554,110355
8582,528,116,128554,110318
8585,527,116,128358,110283
8587,527,116,128236,110246
8590,526,116,128121,110203
8592,526,116,127985,110151
8594,526,116,127843,110151
8597,523,116,127686,110050
8599,521,115,127686,109994
8602,518,116,127366,109940
8604,517,116,127201,109940
8607,514,116,127043,109883
8609,510,115,127043,109773
8612,507,115,126888,109730
8614,504,115,126596,109730
8616,501,116,126453,109672
8620,497,115,126315,109571
8622,490,115,126315,109533
8625,487,115,126053,109489
8627,487,115,125940,109489
8630,485,115,125829,109450
8632,484,115,125829,109365
8634,484,115,125728,109337
8637,483,115,125529,109337
8639,483,115,125449,109301
8642,483,115,125449,109241
8644,483,115,125360,109220
8647,481,115,125281,109203
8649,481,115,125155,109203
8652,481,115,125095,109192
8654,482,115,125095,109161
8656,481,115,125023,109148
8659,480,115,124968,109148
8662,480,115,124937,109151
8665,481,115,124937,109143
8667,481,115,124902,109143
8670,482,115,124902,109137
8672,482,115,124895,109137
8674,482,115,124885,109139
8677,487,115,124885,109143
8679,490,115,124886,109149
8682,492,115,124891,109149
8684,494,115,124916,109150
8687,498,115,124916,109167
8689,500,115,124922,109179
8692,503,115,124935,109186
8694,505,115,124975,109186
8696,508,115,124987,109204
8699,511,115,124987,109213
8701,512,115,125023,109226
8705,512,115,125045,109232
8707,512,115,125067,109246
8710,514,115,125141,109246
8712,515,115,125141,109261
8714,519,115,125164,109261
8717,522,115,125217,109280
8719,525,115,125254,109289
8722,528,115,125254,109318
8724,528,115,125303,109322
8727,529,115,125332,109322
8729,529,115,125373,109353
8732,530,115,125415,109353
8734,532,115,125485,109368
8736,533,115,125485,109392
8739,533,115,125515,109392
8741,534,115,125562,109405
8744,535,115,125607,109417
8747,537,115,125675,109430
8750,540,115,125675,109452
8752,543,115,125709,109463
8754,548,115,125747,109463
8757,550,115,125774,109473
8759,553,115,125832,109486
8762,554,115,125849,109498
8764,554,115,125895,109526
8767,555,115,125932,109526
8769,554,115,125963,109531
8772,554,115,125993,109545
8774,553,115,126033,109558
8776,553,115,126061,109567
8779,553,115,126104,109576
8781,550,115,126146,109598
8784,548,115,126162,109603
8786,547,115,126207,109617
8790,546,115,126248,109633
8792,544,115,126283,109644
8794,542,115,126317,109658
8797,540,115,126331,109666
8799,538,115,126386,109677
8802,536,115,126407,109684
8804,535,115,126452,109695
8807,534,115,126491,109715
8809,533,115,126518,109718
8812,531,115,126565,109732
8814,530,114,126584,109743
8816,528,115,126621,109755
8819,525,115,126660,109765
8821,525,115,126686,109770
8824,525,114,126712,109781
8826,526,115,126736,109792
8829,526,114,126757,109793
8832,526,114,126785,109796
8834,525,114,126794,109809
8837,523,114,126814,109807
8839,522,114,126824,109815
8842,520,114,126852,109826
8844,519,114,126864,109829
8847,518,114,126868,109833
8849,516,114,126885,109836
8852,515,114,126888,109845
8854,514,114,126900,109833
8856,513,114,126912,109847
8859,513,114,126913,109847
8861,514,114,126935,109849
8864,515,114,126942,109845
8866,516,114,126933,109846
8869,517,114,126935,109845
8871,519,114,126933,109850
8873,521,114,126932,109841
8877,521,114,126927,109849
8879,520,114,126909,109840
8882,519,114,126913,109840
8884,518,114,126903,109835
8887,518,114,126890,109831
8889,518,114,126882,109835
8892,518,114,126859,109826
8894,519,114,126841,109818
8896,518,114,126825,109810
8899,515,114,126816,109810
8901,513,114,126791,109809
8904,511,114,126776,109796
8906,510,113,126769,109793
8909,510,113,126741,109782
8911,511,113,126725,109776
8913,512,113,126719,109766
8916,513,113,126695,109774
8919,513,113,126683,109762
8922,510,113,126678,109766
8924,509,113,126675,109765
8927,508,113,126663,109756
8929,507,113,126662,109762
8932,507,113,126667,109757
8934,508,113,126664,109760
8936,509,113,126662,109764
8939,511,113,126669,109762
8941,515,113,126675,109764
8944,517,113,126675,109744
8946,518,113,126701,109781
8949,520,113,126700,109776
8951,524,113,126713,109774
8953,525,113,126729,109781
8956,526,113,126731,109787
8958,528,113,126743,109788
8962,529,113,126751,109793
8964,529,113,126768,109797
8967,528,113,126768,109786
8969,527,113,126784,109809
8972,527,113,126801,109811
8974,529,113,126807,109812
8976,529,113,126829,109819
8979,528,113,126843,109812
8981,527,113,126852,109825
8984,527,113,126871,109836
8986,526,113,126887,109840
8989,525,113,126887,109843
8991,523,113,126929,109854
8993,523,113,126945,109851
8996,522,113,126972,109870
8998,520,113,126999,109869
9001,519,113,127039,109881
9004,516,113,127052,109891
9007,515,113,127069,109889
9009,515,113,127094,109899
9012,515,113,127094,109923
9014,515,113,127161,109923
9016,515,113,127191,109923
9019,515,113,127218,109942
9021,517,113,127261,109948
9024,518,113,127296,109963
9026,518,113,127320,109975
9029,518,113,127347,109994
9031,520,113,127364,109982
9033,521,113,127389,109982
9036,522,113,127413,109998
9038,522,113,127413,109998
9041,522,113,127436,110011
9043,522,113,127445,110011
9047,523,113,127452,110017
9049,523,113,127451,110012
9052,523,113,127451,110014
9054,523,113,127452,110025
9056,524,113,127462,110025
9059,523,113,127452,110013
9061,523,113,127452,110009
9064,521,112,127441,110009
9066,521,113,127437,110009
9069,520,112,127428,110006
9071,521,112,127414,110000
9073,521,112,127395,110000
9076,520,112,127395,110001
9078,518,113,127395,109994
9081,517,112,127392,109988
9083,516,112,127366,109988
9086,516,112,127353,109980
9089,516,112,127353,109986
9092,515,112,127341,109972
9094,515,112,127311,109972
9096,514,112,127303,109972
9099,512,112,127291,109964
9101,512,112,127291,109961
9104,511,112,127271,109961
9106,512,112,127249,109964
9109,512,112,127247,109948
9111,513,112,127236,109948
9113,513,112,127232,109946
9116,512,112,127232,109945
9118,511,112,127217,109937
9121,509,112,127213,109942
9123,508,112,127215,109942
9126,507,112,127216,109944
9128,505,112,127216,109935
9132,502,112,127213,109937
9134,502,112,127221,109937
9136,500,112,127232,109941
9139,498,112,127232,109951
9141,497,112,127238,109954
9144,496,112,127259,109954
9146,496,112,127270,109960
9149,496,111,127270,109970
9151,497,112,127282,109967
9153,497,111,127295,109974
9156,498,112,127322,109984
9158,498,112,127322,109981
9161,498,112,127317,109981
9163,500,112,127317,109988
9166,501,112,127383,109988
9168,504,112,127383,110001
9171,508,112,127402,110008
9174,510,112,127432,110008
9176,513,112,127450,110017
9179,516,112,127450,110020
9181,518,112,127463,110023
9184,518,112,127478,110023
9186,518,112,127516,110028
9189,518,112,127516,110044
9191,518,111,127523,110046
9193,519,112,127531,110049
9196,519,112,127572,110049
9198,520,112,127578,110054
9201,522,112,127578,110057
9203,522,112,127591,110067
9206,523,112,127619,110067
9208,522,112,127619,110064
9211,524,112,127627,110064
9213,524,112,127648,110071
9216,526,112,127648,110086
9219,526,112,127658,110086
9221,527,112,127673,110099
9224,529,112,127694,110101
9226,531,112,127692,110105
9229,533,112,127707,110105
9231,535,112,127748,110116
9233,537,112,127748,110109
9236,539,112,127753,110121
9238,540,112,127762,110118
9241,539,112,127774,110126
9243,537,111,127774,110136
9246,535,112,127795,110128
9248,531,111,127805,110135
9251,530,112,127836,110137
9253,528,111,127819,110139
9255,526,111,127846,110146
9259,522,111,127857,110150
9261,518,111,127866,110153
9264,517,111,127886,110159
9266,515,111,127887,110160
9269,513,111,127887,110157
9271,511,111,127896,110165
9273,509,111,127903,110162
9276,507,111,127911,110169
9278,505,111,127897,110166
9281,504,111,127914,110168
9283,504,111,127917,110171
9286,504,111,127917,110173
9288,503,111,127920,110171
9291,502,111,127914,110175
9293,501,111,127918,110175
9295,500,111,127929,110170
9298,498,111,127919,110178
9300,497,111,127930,110176
9304,497,111,127938,110178
9306,497,111,127936,110182
9309,497,111,127946,110179
9311,496,111,127955,110181
9313,496,111,127958,110187
9316,493,111,127955,110184
9318,491,111,127962,110189
9321,488,111,127965,110199
9323,485,111,127986,110197
9326,481,111,127996,110191
9328,477,110,127991,110206
9331,475,111,128005,110205
9333,475,110,128030,110205
9335,475,110,128028,110208
9338,477,110,128023,110208
9340,480,111,128041,110212
9344,485,111,128056,110222
9346,492,110,128059,110222
9349,506,110,128078,110223
9351,543,110,128090,110225
9353,567,110,128088,110222
9356,588,110,128092,110229
9358,601,110,128109,110237
9361,597,110,128117,110241
9363,580,111,128115,110235
9366,562,110,128129,110235
9368,541,110,128130,110240
9371,513,110,128129,110245
9373,490,111,128139,110243
9375,489,111,128151,110248
9378,491,110,128159,110245
9380,495,110,128170,110250
9383,497,110,128173,110252
9385,496,110,128177,110257
9389,492,110,128189,110256
9391,490,110,128196,110259
9393,488,110,128208,110259
9396,489,110,128218,110267
9398,490,110,128215,110265
9401,492,110,128227,110267
9403,494,110,128240,110279
9406,498,110,128252,110277
9408,501,110,128260,110285
9411,505,110,128256,110281
9413,508,111,128268,110280
9415,511,110,128275,110289
9418,515,110,128270,110291
9420,516,110,128295,110293
9423,516,110,128293,110294
9425,518,110,128303,110289
9428,519,110,128308,110296
9431,521,110,128304,110272
9433,521,110,128316,110287
9436,521,111,128316,110296
9438,520,111,128319,110297
9441,521,110,128313,110290
9443,520,110,128314,110287
9446,520,110,128314,110272
9448,518,110,128308,110286
9451,517,110,128294,110286
9453,516,110,128291,110282
9455,516,110,128284,110278
9458,516,110,128271,110274
9460,516,110,128250,110271
9463,517,110,128242,110266
9465,518,110,128235,110265
9468,520,110,128223,110265
9470,521,110,128223,110262
9473,521,111,128223,110259
9476,520,110,128208,110254
9478,519,110,128216,110271
9481,519,110,128220,110269
9483,519,110,128232,110265
9486,519,111,128243,110269
9488,521,111,128254,110267
9491,522,111,128273,110267
9493,525,110,128287,110284
9495,525,110,128307,110284
9498,524,111,128325,110296
9500,524,110,128347,110298
9503,524,110,128373,110300
9505,525,110,128390,110322
9508,526,111,128413,110319
9510,526,110,128424,110325
9512,527,110,128457,110325
9516,526,110,128476,110343
9518,527,111,128506,110345
9521,527,110,128528,110357
9523,528,110,128546,110357
9526,528,110,128571,110364
9528,529,110,128585,110379
9531,529,110,128585,110378
9533,528,110,128618,110384
9535,527,110,128638,110384
9538,525,110,128661,110398
9540,524,110,128661,110395
9543,523,110,128664,110405
9545,523,110,128683,110405
9548,523,110,128704,110417
9550,525,110,128704,110414
9552,525,110,128707,110418
9555,526,110,128719,110424
9558,527,110,128717,110424
9561,529,110,128714,110421
9563,530,110,128714,110425
9566,531,110,128712,110422
9568,532,110,128717,110422
9571,532,110,128701,110419
9573,532,110,128679,110406
9575,532,110,128665,110406
9578,531,110,128645,110390
9580,531,110,128645,110383
9583,531,110,128621,110362
9585,531,110,128520,110362
9588,530,110,128472,110321
9590,530,110,128472,110302
9592,530,110,128410,110275
9595,530,110,128244,110275
9597,531,110,128145,110237
9601,532,110,128024,110153
9603,534,110,128024,110118
9606,534,110,127760,110068
9608,536,110,127607,110017
9611,536,110,127607,109956
9613,537,110,127273,109956
9615,537,110,127129,109899
9618,535,110,126963,109782
9620,534,110,126963,109727
9623,533,110,126624,109727
9625,532,110,126624,109606
9628,532,110,126286,109606
9630,531,110,126286,109483
9632,530,110,126127,109417
9635,529,110,125782,109417
9637,527,110,125617,109355
9640,524,110,125617,109240
9643,521,110,125457,109190
9646,517,110,125291,109140
9648,516,111,124962,109140
9651,513,110,124858,109093
9653,508,110,124858,109010
9655,504,110,124694,108979
9658,501,110,124492,108979
9660,497,110,124396,108949
9663,491,110,124396,108902
9665,489,110,124329,108888
9668,488,110,124247,108888
9670,489,110,124135,108869
9672,490,110,124135,108848
9675,491,110,124099,108844
9677,492,110,124068,108844
9680,493,110,124009,108844
9682,493,110,123995,108837
9686,494,110,123995,108841
9688,495,110,123976,108841
9691,497,110,123984,108843
9693,500,110,123985,108837
9695,502,111,123968,108837
9698,504,111,123995,108846
9700,506,110,123995,108855
9703,507,110,123999,108855
9705,509,110,123997,108873
9708,510,111,124031,108876
9710,511,110,124078,108887
9712,513,110,124078,108906
9715,515,110,124091,108906
9717,518,111,124108,108917
9720,520,111,124143,108932
9722,522,111,124167,108949
9725,524,111,124203,108972
9728,526,111,124261,108972
9731,527,111,124280,108997
9733,528,111,124317,109006
9735,529,111,124354,109038
9738,530,111,124410,109038
9740,528,111,124439,109053
9743,526,111,124479,109068
9745,525,111,124527,109079
9748,525,111,124571,109104
9750,524,110,124612,109120
9752,524,110,124666,109134
9755,522,110,124699,109156
9757,520,111,124752,109165
9760,519,110,124794,109180
9762,516,110,124834,109190
9765,514,110,124876,109213
9767,512,110,124921,109222
9771,510,110,124963,109234
9773,506,110,125012,109262
9775,503,111,125061,109267
9778,500,110,125089,109285
9780,498,110,125142,109301
9783,496,110,125183,109311
9785,495,110,125234,109329
9788,494,110,125290,109348
9790,492,110,125336,109362
9792,490,110,125379,109386
9795,488,110,125427,109398
9797,486,110,125478,109414
9800,486,110,125545,109436
9802,485,110,125588,109446
9805,485,110,125637,109475
9807,484,110,125692,109486
9810,483,110,125744,109503
9812,482,110,125798,109517
9815,482,110,125861,109548
9818,482,110,125902,109559
9820,482,110,125963,109582
9823,482,110,126009,109591
9825,482,110,126049,109606
9828,484,110,126095,109622
9830,486,110,126139,109633
9832,486,110,126168,109649
9835,486,110,126216,109659
9837,485,110,126253,109673
9840,485,110,126284,109676
9842,485,110,126320,109692
9845,485,110,126337,109699
9847,484,110,126382,109712
9850,483,109,126408,109714
9852,483,109,126417,109723
9854,482,109,126437,109729
9858,479,109,126455,109731
9860,476,109,126458,109745
9863,473,109,126474,109736
9865,472,109,126471,109743
9868,471,109,126473,109742
9870,471,109,126483,109740
9872,472,109,126467,109741
9875,473,109,126476,109740
9877,474,109,126470,109728
9880,473,109,126461,109735
9882,473,109,126452,109728
9885,472,109,126442,109724
9887,473,109,126433,109719
9890,474,109,126411,109711
9892,476,109,126400,109691
9894,479,109,126383,109711
9897,481,109,126358,109694
9900,481,109,126332,109690
9903,482,109,126303,109676
9905,483,109,126278,109660
9908,485,109,126253,109655
9910,488,109,126213,109613
9912,488,109,126180,109624
9915,487,109,126142,109613
9917,487,109,126099,109598
9920,487,109,126069,109588
9922,486,109,126037,109575
9925,485,109,126007,109564
9927,485,109,125971,109550
9930,486,109,125942,109532
9932,489,109,125910,109524
9934,490,109,125880,109513
9937,491,109,125866,109504
9939,491,109,125817,109500
9943,491,109,125806,109490
9945,492,109,125787,109477
9948,493,109,125763,109472
9950,494,109,125736,109462
9952,497,109,125722,109462
9955,501,109,125705,109454
9957,502,109,125691,109441
9960,501,109,125687,109437
9962,501,109,125662,109443
9965,501,109,125655,109443
9967,500,109,125653,109436
9970,499,109,125653,109430
9972,498,109,125630,109430
9974,497,108,125630,109430
9977,494,109,125638,109429
9979,491,109,125639,109431
9982,489,109,125637,109433
9985,486,109,125632,109432
9988,485,108,125631,109432
9990,482,108,125634,109443
9992,482,108,125634,109437
9995,481,108,125662,109448
9997,481,108,125669,109448
10000,483,108,125675,109456
10002,483,108,125675,109456
10005,482,108,125704,109472
10007,482,108,125716,109473
10010,482,108,125728,109473
10012,481,108,125742,109484
10014,480,108,125742,109492
10017,479,108,125781,109500
10019,479,108,125807,109500
10022,479,108,125832,109513
10024,479,108,125832,109529
10028,479,108,125851,109537
10030,479,108,125898,109546
10032,479,108,125937,109546
10035,478,108,125960,109561
10037,477,108,125960,109577
10040,478,108,126006,109580
10042,479,108,126029,109580
10045,480,108,126066,109592
10047,482,108,126090,109607
10050,483,108,126090,109618
10052,484,108,126136,109623
10054,484,108,126136,109633
10057,484,108,126199,109647
10059,484,108,126223,109647
10062,484,107,126255,109655
10064,484,107,126255,109670
10067,484,107,126280,109675
10070,485,107,126327,109675
10072,486,107,126354,109687
10075,489,107,126385,109702
10077,490,108,126400,109702
10080,490,107,126400,109718
10082,490,107,126434,109718
10085,489,107,126459,109727
10087,491,108,126459,109733
10090,493,107,126484,109746
10092,495,107,126502,109746
10094,497,107,126538,109747
10097,498,107,126538,109756
10099,499,107,126564,109765
10102,499,107,126568,109773
10104,499,107,126607,109773
10107,499,107,126625,109783
10109,499,107,126625,109785
10112,499,107,126641,109790
10115,498,107,126670,109790
10117,498,107,126689,109787
10120,498,107,126689,109806
10122,498,107,126700,109815
10125,496,107,126708,109813
10127,496,107,126694,109813
10130,495,107,126730,109816
10132,495,107,126730,109827
10134,493,107,126741,109825
10137,492,107,126748,109825
10139,490,107,126752,109829
10142,488,107,126752,109824
10144,488,106,126752,109830
10147,486,107,126751,109837
10149,486,107,126765,109837
10151,486,107,126765,109832
10155,487,106,126762,109840
10157,486,106,126772,109839
10160,487,106,126786,109839
10162,487,106,126786,109847
10165,487,106,126786,109852
10167,488,106,126797,109853
10170,490,106,126839,109853
10172,491,107,126839,109860
10174,494,106,126839,109861
10177,494,106,126846,109872
10179,497,106,126858,109872
10182,498,106,126866,109875
10184,499,106,126896,109881
10187,501,106,126900,109894
10189,502,106,126915,109898
10191,503,106,126927,109898
10194,504,106,126969,109903
10196,505,106,126969,109899
10200,506,106,126960,109898
10202,506,106,126979,109915
10205,506,106,126999,109915
10207,504,106,127002,109923
10210,501,106,127012,109923
10212,497,106,127032,109929
10214,494,106,127037,109932
10217,491,106,127064,109932
10219,486,106,127061,109938
10222,484,106,127073,109941
10224,483,106,127085,109937
10227,485,106,127090,109945
10229,491,106,127107,109946
10231,500,105,127111,109952
10234,521,105,127122,109955
10236,540,106,127138,109958
10240,562,105,127131,109962
10242,593,105,127143,109963
10245,615,105,127152,109966
10247,626,105,127159,109968
10250,614,106,127172,109974
10252,591,105,127169,109973
10254,565,105,127171,109971
10257,511,105,127188,109979
10259,489,105,127190,109984
10262,478,105,127195,109982
10264,474,105,127201,109975
10267,474,105,127208,109980
10269,476,105,127209,109985
10271,474,105,127222,109991
10274,470,105,127225,109981
10276,466,105,127233,109992
10279,461,104,127252,109996
10281,459,104,127254,109997
10285,460,104,127262,109997
10287,461,105,127277,110001
10290,462,104,127284,110005
10292,464,104,127302,110013
10294,467,104,127311,110011
10297,470,104,127316,110025
10299,470,104,127333,110018
10302,471,104,127336,110020
10304,471,104,127348,110024
10307,472,104,127358,110028
10309,476,104,127376,110025
10311,477,104,127379,110042
10314,477,104,127391,110039
10316,476,104,127404,110042
10319,475,104,127419,110037
10321,474,104,127409,110052
10324,472,104,127430,110056
10327,471,104,127433,110054
10330,471,104,127445,110054
10332,472,103,127450,110051
10334,472,103,127448,110062
10337,475,104,127463,110061
10339,477,103,127453,110064
10342,478,103,127466,110067
10344,480,103,127468,110058
10347,483,103,127472,110067
10349,490,103,127476,110062
10351,491,103,127486,110068
10354,491,103,127495,110072
10356,491,103,127509,110082
10359,492,103,127512,110087
10361,492,103,127525,110083
10364,491,103,127529,110085
10366,491,103,127535,110097
10370,491,103,127539,110089
10372,492,103,127549,110101
10374,492,103,127568,110098
10377,493,103,127567,110100
10379,493,103,127581,110097
10382,493,103,127600,110107
10384,491,103,127621,110109
10387,489,102,127629,110121
10389,491,103,127636,110120
10391,494,102,127648,110127
10394,495,102,127657,110131
10396,496,102,127677,110131
10399,498,102,127679,110137
10401,500,102,127693,110140
10404,499,102,127693,110124
10406,499,102,127716,110147
10409,499,102,127728,110158
10412,503,102,127733,110151
10414,504,102,127751,110158
10417,504,102,127757,110157
10419,504,102,127770,110160
10422,505,102,127781,110179
10424,503,102,127797,110176
10427,503,102,127808,110186
10429,504,102,127816,110177
10431,507,102,127817,110177
10434,509,102,127839,110185
10436,510,102,127842,110185
10439,510,102,127864,110187
10441,512,102,127867,110193
10444,514,102,127872,110193
10446,516,101,127886,110196
10449,516,102,127886,110197
10451,516,101,127883,110204
10454,516,101,127881,110204
10457,514,101,127889,110197
10459,512,101,127876,110189
10462,511,101,127864,110204
10464,509,101,127834,110176
10467,508,101,127809,110176
10469,507,101,127761,110158
10471,506,101,127761,110130
10474,505,101,127648,110102
10476,504,101,127571,110102
10479,505,101,127478,110042
10481,505,101,127368,110009
10484,504,101,127255,109953
10486,505,101,127122,109911
10489,507,101,126980,109911
10491,509,100,126825,109794
10493,510,101,126825,109741
10497,509,100,126497,109672
