TimeStamp,ECG Data,GSR Data,PPG_Red Data,PPG_IR Data
12742,520,92,118257,113630
12745,519,91,118257,113631
12747,517,92,118250,113627
12740,520,92,118260,113634
12742,520,92,118257,113630
12745,519,91,118257,113631
12747,517,92,118250,113627
6,517,100,0,0
8,520,100,57579,57592
11,521,100,73933,73930
13,520,100,90323,90354
15,519,100,106721,106739
18,518,101,118836,113841
20,517,101,118766,113826
23,517,101,118677,113800
25,516,101,118677,113766
28,516,102,118627,113766
30,515,102,118587,113752
33,516,102,118559,113735
35,516,103,118520,113728
37,517,103,118489,113705
40,517,103,118467,113698
43,517,103,118445,113689
46,516,103,118425,113684
48,515,103,118406,113677
51,515,104,118393,113665
53,515,104,118387,113657
55,515,104,118377,113665
58,514,104,118357,113654
60,514,104,118359,113662
63,514,104,118358,113658
65,513,105,118361,113662
68,512,105,118355,113660
70,510,105,118353,113657
73,508,105,118346,113664
75,508,105,118368,113662
77,507,106,118368,113664
80,505,105,118374,113672
82,504,106,118388,113672
86,504,106,118381,113669
88,503,106,118397,113677
91,503,106,118409,113686
93,503,106,118409,113684
95,503,107,118420,113698
98,503,107,118433,113691
100,502,107,118447,113698
103,502,107,118463,113702
105,501,107,118478,113709
108,501,107,118485,113714
110,501,107,118492,113712
113,501,107,118504,113722
115,502,107,118514,113733
117,502,108,118523,113734
120,502,108,118542,113735
122,502,108,118552,113732
125,503,108,118559,113744
128,503,108,118568,113741
131,503,108,118587,113751
133,503,108,118592,113752
135,503,108,118600,113757
138,503,109,118603,113747
140,504,109,118615,113760
143,504,109,118615,113768
145,504,109,118627,113770
148,504,109,118636,113763
150,504,109,118643,113765
153,504,109,118653,113773
155,505,110,118669,113778
157,506,110,118664,113780
160,506,110,118674,113778
162,507,110,118679,113789
165,507,110,118686,113786
167,508,110,118688,113787
171,508,110,118697,113786
173,510,110,118704,113808
175,511,110,118711,113798
178,511,110,118718,113810
180,510,111,118734,113808
183,510,111,118743,113810
185,510,111,118765,113818
188,510,111,118760,113820
190,510,111,118776,113826
193,510,111,118788,113839
195,511,111,118798,113835
197,512,111,118808,113840
200,512,111,118816,113850
202,512,111,118823,113848
205,513,111,118834,113849
207,513,111,118853,113854
210,514,112,118855,113857
212,515,112,118871,113861
215,516,112,118876,113861
218,518,112,118882,113870
220,518,112,118887,113860
223,518,112,118889,113862
225,518,112,118894,113870
228,519,112,118898,113872
230,518,112,118904,113874
233,518,112,118904,113870
235,518,112,118909,113875
237,518,112,118907,113875
240,519,112,118915,113873
242,520,112,118911,113872
245,520,113,118911,113873
247,521,113,118908,113869
250,522,113,118909,113869
252,522,113,118920,113862
254,522,113,118914,113862
258,521,113,118914,113858
260,520,113,118914,113865
263,518,113,118910,113867
265,516,113,118907,113869
268,515,113,118907,113861
270,514,114,118906,113864
273,513,113,118897,113864
275,511,114,118901,113862
277,510,114,118898,113861
280,509,114,118894,113856
282,508,114,118894,113855
285,507,114,118892,113851
287,505,114,118883,113849
290,504,114,118883,113851
292,505,114,118878,113848
294,505,114,118879,113848
297,503,114,118875,113843
300,502,114,118875,113847
303,501,115,118877,113844
305,501,114,118873,113844
308,501,114,118887,113846
310,502,115,118883,113839
313,502,115,118871,113851
315,503,115,118881,113846
317,504,115,118881,113846
320,504,115,118880,113848
322,504,115,118880,113848
325,503,115,118891,113861
327,503,115,118891,113861
330,503,115,118891,113858
332,502,115,118891,113849
334,498,115,118904,113860
337,493,115,118905,113860
339,485,115,118916,113857
343,475,115,118925,113873
345,459,115,118925,113875
348,451,115,118934,113880
350,446,116,118948,113880
353,443,116,118952,113879
355,448,116,118952,113882
357,461,116,118959,113893
360,475,116,118964,113893
362,501,116,118991,113893
365,532,116,118991,113902
367,618,116,118991,113907
370,672,116,119013,113904
372,711,116,119016,113904
374,745,116,119029,113914
377,786,116,119029,113913
379,779,116,119042,113924
382,762,117,119062,113924
385,740,117,119076,113922
388,689,117,119076,113943
390,668,117,119098,113943
393,634,117,119099,113949
395,569,117,119099,113953
397,526,117,119116,113959
400,500,117,119146,113959
402,474,117,119155,113969
405,440,117,119155,113972
407,424,117,119160,113979
410,414,117,119182,113979
412,406,117,119207,113980
414,402,117,119216,113997
417,404,117,119216,114002
419,412,117,119228,114006
422,421,117,119242,114006
424,431,117,119262,114012
428,450,117,119262,114019
430,460,117,119262,114023
433,465,117,119274,114023
435,470,118,119305,114023
437,473,117,119309,114029
440,478,117,119309,114047
442,480,117,119325,114049
445,482,118,119341,114049
447,483,118,119349,114048
450,485,118,119349,114049
452,487,118,119359,114055
454,488,118,119366,114055
457,489,118,119385,114066
459,490,118,119390,114073
462,491,118,119399,114080
464,494,118,119419,114083
467,495,118,119431,114081
470,495,118,119445,114090
473,497,118,119445,114097
475,498,118,119466,114102
477,499,118,119474,114102
480,499,118,119479,114107
482,499,118,119495,114116
485,499,118,119502,114116
487,500,118,119511,114121
490,500,118,119537,114125
492,501,118,119544,114131
494,502,118,119544,114143
497,502,118,119561,114143
499,503,118,119566,114144
502,504,118,119584,114156
504,505,118,119596,114154
507,505,118,119601,114156
509,506,118,119613,114169
513,507,118,119620,114171
515,507,118,119638,114171
517,509,119,119639,114182
520,510,118,119648,114181
522,511,118,119673,114186
525,511,118,119677,114186
527,511,118,119687,114197
530,511,118,119690,114204
532,511,118,119709,114201
534,512,118,119709,114211
537,513,118,119717,114215
539,513,118,119713,114210
542,513,118,119706,114211
544,512,119,119712,114213
547,512,118,119720,114208
549,512,118,119705,114197
552,513,118,119693,114187
555,515,119,119658,114176
557,516,119,119628,114161
560,516,118,119582,114142
562,517,119,119538,114113
565,516,118,119490,114095
567,517,119,119435,114073
570,517,118,119381,114052
572,517,118,119334,114023
574,517,118,119276,114001
577,518,118,119220,113981
579,518,118,119156,113954
582,519,118,119101,113923
584,519,118,119045,113907
587,520,118,118978,113868
589,519,118,118926,113850
592,519,118,118861,113828
594,518,118,118825,113815
596,518,118,118774,113791
600,517,118,118725,113772
602,517,118,118682,113758
605,516,118,118643,113736
607,515,118,118601,113724
610,516,118,118567,113709
612,516,118,118541,113696
614,516,118,118511,113681
617,517,118,118484,113680
619,517,118,118456,113665
622,517,118,118446,113654
624,517,118,118424,113651
627,517,118,118406,113647
629,516,118,118397,113641
632,516,118,118391,113632
634,516,118,118381,113637
636,514,118,118382,113638
640,513,118,118373,113641
642,511,118,118370,113636
645,510,118,118373,113637
647,509,118,118374,113642
650,509,118,118376,113645
652,508,118,118376,113634
654,507,118,118386,113643
657,506,118,118393,113647
659,505,118,118400,113652
662,505,118,118400,113652
664,504,118,118413,113654
667,503,118,118419,113658
669,502,118,118428,113665
672,502,118,118428,113665
674,501,118,118444,113671
676,501,117,118451,113670
679,500,117,118464,113679
681,500,117,118477,113678
685,500,117,118481,113676
687,500,117,118495,113673
690,500,117,118502,113686
692,501,117,118516,113697
694,501,117,118520,113699
697,501,117,118541,113704
699,501,117,118548,113707
702,501,117,118551,113710
704,501,117,118563,113709
707,501,117,118563,113712
709,501,117,118569,113711
712,501,117,118586,113711
714,502,117,118595,113727
716,503,117,118600,113721
719,503,117,118598,113717
721,504,116,118605,113722
724,504,117,118614,113725
727,502,116,118622,113737
730,502,116,118622,113735
732,502,116,118634,113738
734,503,116,118636,113738
737,504,116,118654,113746
739,503,116,118653,113740
742,504,116,118658,113741
744,504,116,118658,113743
747,505,116,118661,113747
749,506,116,118671,113741
752,506,116,118671,113747
754,507,116,118689,113764
756,508,116,118700,113764
759,508,116,118704,113759
761,508,116,118704,113765
764,508,115,118716,113760
766,507,115,118727,113760
770,507,115,118735,113763
772,507,115,118745,113773
774,506,115,118745,113780
777,507,115,118767,113785
779,507,115,118775,113785
782,507,115,118793,113798
784,508,115,118793,113788
787,508,115,118796,113800
789,509,115,118814,113800
792,510,115,118821,113800
794,511,114,118832,113811
796,512,114,118832,113815
799,512,114,118846,113811
801,512,114,118852,113811
804,512,114,118860,113817
806,512,114,118862,113821
809,512,114,118869,113821
812,513,114,118869,113820
814,513,114,118866,113822
817,514,114,118868,113827
819,515,114,118871,113827
822,517,114,118880,113827
824,517,113,118880,113830
827,518,113,118892,113826
829,519,113,118885,113826
832,519,113,118883,113832
834,518,113,118883,113835
836,517,113,118895,113820
839,516,113,118891,113826
841,514,113,118891,113822
844,513,113,118898,113829
846,512,113,118895,113829
849,510,113,118895,113825
851,509,113,118893,113825
854,508,113,118897,113826
857,506,112,118897,113828
859,504,112,118890,113820
862,504,112,118889,113820
864,503,112,118898,113826
867,502,112,118883,113833
869,501,112,118883,113823
872,500,112,118885,113818
874,500,112,118885,113818
876,499,112,118888,113817
879,497,112,118888,113829
881,497,112,118889,113828
884,497,111,118880,113828
886,497,111,118896,113827
889,497,111,118896,113826
891,497,111,118888,113826
893,497,111,118888,113813
897,497,111,118884,113817
899,497,111,118888,113817
902,497,111,118891,113832
904,497,111,118895,113823
907,497,111,118895,113828
909,497,111,118903,113834
912,497,110,118900,113834
914,494,110,118900,113839
916,489,110,118904,113842
919,484,110,118923,113842
921,475,110,118923,113846
924,455,110,118925,113852
926,446,110,118934,113849
929,440,110,118941,113849
931,436,110,118957,113855
933,435,110,118957,113865
936,439,110,118969,113865
939,449,110,118969,113860
942,488,109,118979,113868
944,529,109,118992,113869
947,569,109,118995,113869
949,610,109,119010,113877
952,659,109,119012,113884
954,706,109,119020,113889
956,776,109,119033,113884
959,788,109,119061,113899
961,786,109,119061,113912
964,750,109,119067,113915
966,723,109,119079,113915
969,693,109,119087,113913
971,664,109,119094,113924
973,627,109,119108,113922
976,587,109,119117,113930
978,514,108,119129,113933
982,487,108,119160,113936
984,461,109,119160,113948
987,445,108,119172,113948
989,410,108,119174,113960
992,400,108,119195,113964
994,395,108,119201,113971
996,393,108,119215,113966
999,396,108,119236,113973
1001,413,107,119238,113983
1004,423,107,119249,113988
1006,434,107,119261,113993
1009,443,107,119280,113994
1011,459,107,119299,113995
1013,464,107,119314,114006
1016,468,107,119301,114006
1018,470,107,119327,114017
1021,473,107,119333,114021
1024,476,106,119344,114020
1027,477,106,119356,114032
1029,480,106,119363,114032
1032,482,106,119375,114032
1034,483,106,119387,114037
1036,484,106,119399,114046
1039,485,106,119420,114055
1041,486,106,119427,114063
1044,487,106,119429,114065
1046,488,106,119446,114075
1049,490,105,119454,114078
1051,491,105,119461,114071
1053,491,105,119474,114075
1056,493,105,119481,114075
1058,493,105,119487,114087
1061,494,105,119503,114083
1063,495,105,119514,114094
1067,496,105,119528,114098
1069,496,105,119546,114103
1072,497,105,119540,114115
1074,498,105,119567,114115
1076,498,105,119568,114119
1079,499,105,119582,114121
1081,499,104,119597,114125
1084,499,104,119608,114139
1086,500,104,119615,114138
1089,500,104,119618,114143
1091,500,104,119631,114152
1093,501,104,119642,114153
1096,504,104,119654,114160
1098,505,104,119668,114175
1101,506,104,119688,114174
1103,507,104,119700,114179
1106,508,104,119709,114183
1108,508,104,119709,114187
1112,508,104,119717,114186
1114,508,104,119725,114188
1116,507,104,119734,114197
1119,507,103,119728,114200
1121,507,103,119731,114200
1124,507,104,119732,114195
1126,508,103,119725,114190
1129,509,103,119703,114179
1131,509,103,119690,114163
1133,509,103,119661,114128
1136,510,103,119628,114136
1138,511,103,119596,114113
1141,512,103,119549,114094
1143,513,103,119500,114081
1146,514,103,119442,114053
1148,515,103,119384,114027
1152,515,102,119332,114001
1154,515,103,119274,113975
1156,515,103,119208,113956
1159,515,102,119158,113930
1161,515,102,119106,113909
1164,515,103,119047,113878
1166,516,102,118993,113847
1169,516,102,118937,113840
1171,517,102,118875,113804
1173,517,102,118830,113796
1176,516,102,118784,113774
1178,516,102,118727,113756
1181,516,102,118692,113743
1183,516,102,118659,113722
1186,516,102,118659,113701
1188,516,102,118577,113694
1191,516,102,118549,113694
1193,516,102,118527,113681
1196,517,102,118507,113663
1199,517,102,118483,113652
1201,517,102,118459,113640
1204,517,102,118444,113641
1206,517,102,118434,113634
1209,516,101,118434,113630
1211,516,101,118407,113628
1213,515,102,118401,113628
1216,515,102,118401,113627
1218,515,101,118396,113624
1221,515,101,118393,113621
1223,514,101,118393,113626
1226,513,101,118385,113619
1228,510,101,118395,113627
1231,508,101,118395,113631
1233,507,101,118404,113629
1235,506,101,118397,113629
1239,505,101,118416,113635
1241,504,101,118416,113629
1244,504,101,118425,113636
1246,503,101,118431,113636
1249,503,101,118445,113638
1251,503,101,118446,113643
1253,502,101,118446,113646
1256,502,101,118467,113654
1258,502,100,118474,113654
1261,501,100,118490,113671
1263,501,101,118490,113666
1266,500,100,118500,113663
1268,501,100,118506,113663
1271,501,100,118524,113678
1273,501,100,118543,113682
1275,501,100,118543,113683
1278,502,100,118545,113682
1281,502,100,118559,113682
1284,503,100,118566,113691
1286,503,100,118565,113690
1289,503,100,118577,113698
1291,503,100,118577,113697
1293,503,100,118580,113700
1296,504,100,118587,113703
1298,504,100,118600,113703
1301,505,100,118605,113708
1303,505,100,118605,113715
1306,506,100,118619,113709
1308,506,100,118623,113709
1311,505,100,118622,113718
1313,505,100,118622,113719
1315,505,100,118632,113713
1318,506,100,118646,113720
1320,506,100,118646,113727
1324,506,99,118653,113728
1326,507,99,118664,113728
1329,508,99,118664,113722
1331,508,99,118668,113722
1333,509,99,118676,113736
1336,510,99,118676,113735
1338,510,99,118686,113734
1341,510,99,118707,113734
1343,510,99,118715,113740
1346,509,99,118718,113747
1348,508,99,118718,113754
1351,508,99,118725,113758
1353,508,99,118750,113758
1355,508,99,118758,113761
1358,509,99,118758,113768
1360,510,99,118774,113765
1363,511,99,118786,113765
1366,511,99,118793,113772
1369,511,99,118793,113783
1371,511,99,118808,113783
1373,512,99,118808,113780
1553,616,98,119126,113919
1555,582,97,119136,113926
1558,548,98,119150,113932
1548,711,98,119110,113919
1551,682,98,119126,113920
1553,616,98,119126,113919
1555,582,97,119136,113926
1558,548,98,119150,113932
1551,682,98,119126,113920
1553,616,98,119126,113919
1555,582,97,119136,113926
1558,548,98,119150,113932
1560,511,98,119172,113933
1563,465,98,119165,113934
1565,446,98,119178,113937
1568,426,98,119199,113944
1570,404,98,119208,113953
1572,396,97,119219,113965
1575,392,97,119226,113960
1577,391,98,119244,113972
1581,402,97,119248,113976
1583,412,97,119262,113984
1586,422,97,119280,113979
1588,434,97,119302,113987
1591,447,97,119301,113994
1593,460,97,119305,113999
1595,465,97,119324,114005
1598,468,97,119332,114010
1600,471,97,119349,114013
1603,473,97,119349,114015
1605,475,97,119366,114019
1608,475,97,119375,114026
1610,477,97,119385,114038
1612,479,97,119398,114038
1615,480,97,119415,114044
1617,482,97,119423,114050
1620,484,97,119429,114052
1623,485,97,119449,114060
1626,486,97,119456,114061
1628,486,97,119471,114066
1631,487,98,119482,114072
1633,488,97,119489,114086
1635,488,97,119499,114084
1638,489,97,119506,114092
1640,490,97,119515,114094
1643,492,97,119532,114097
1645,493,97,119539,114106
1648,493,97,119557,114104
1650,493,97,119568,114112
1652,494,97,119575,114105
1655,496,97,119572,114119
1657,497,97,119592,114116
1660,498,97,119599,114121
1662,498,97,119610,114128
1666,498,97,119622,114132
1668,497,97,119644,114138
1671,497,97,119644,114139
1673,497,97,119658,114140
1675,497,97,119669,114140
1678,498,97,119682,114160
1680,500,97,119694,114159
1683,500,97,119694,114170
1685,501,97,119709,114172
1688,502,97,119719,114172
1690,503,97,119737,114181
1692,503,97,119742,114182
1695,504,98,119755,114187
1697,505,98,119755,114195
1700,505,97,119742,114186
1702,506,97,119746,114192
1705,507,98,119746,114180
1708,508,97,119731,114172
1711,509,98,119716,114172
1713,511,98,119694,114158
1715,512,98,119666,114134
1718,513,98,119620,114124
1720,512,98,119620,114103
1723,512,98,119530,114077
1725,511,98,119479,114056
1728,510,98,119479,114033
1730,510,98,119375,114009
1732,510,98,119323,114009
1735,510,98,119267,113958
1737,510,98,119267,113940
1740,510,98,119159,113917
1742,511,98,119105,113917
1745,512,98,119055,113896
1747,512,98,119001,113850
1751,512,98,118939,113837
1753,511,98,118888,113804
1755,511,98,118846,113804
1758,511,98,118795,113764
1760,512,98,118795,113745
1763,512,98,118752,113739
1765,512,98,118673,113739
1768,511,98,118648,113728
1770,511,98,118648,113695
1772,511,98,118610,113684
1775,511,98,118552,113684
1777,511,98,118537,113674
1780,511,98,118506,113659
1782,510,98,118506,113652
1785,510,98,118498,113649
1787,510,98,118470,113649
1790,510,98,118453,113648
1793,510,98,118453,113623
1795,510,98,118449,113628
1798,510,98,118431,113628
1800,510,99,118433,113637
1803,509,99,118431,113634
1805,508,98,118431,113633
1808,506,99,118440,113638
1810,506,98,118433,113638
1812,504,98,118442,113638
1815,503,99,118451,113633
1817,503,99,118450,113633
1820,503,99,118450,113648
1822,502,99,118454,113650
1825,502,99,118469,113650
1827,500,99,118469,113651
1830,498,99,118490,113651
1832,498,99,118499,113651
1835,498,99,118518,113665
1838,499,99,118518,113671
1840,499,99,118522,113678
1843,499,99,118540,113678
1845,499,99,118556,113674
1848,498,99,118556,113681
1850,498,99,118567,113681
1852,497,99,118577,113695
1855,496,99,118577,113697
1857,496,99,118592,113696
1860,497,99,118606,113696
1862,497,99,118613,113701
1865,499,99,118613,113701
1867,499,99,118620,113707
1870,500,99,118629,113707
1872,500,99,118648,113709
1874,501,99,118654,113722
1878,501,99,118654,113715
1880,501,99,118664,113725
1883,500,99,118664,113725
1885,500,99,118675,113720
1888,500,99,118675,113730
1890,500,100,118688,113730
1892,500,99,118698,113730
1895,500,100,118697,113735
1897,501,99,118707,113740
1900,501,99,118707,113740
1902,502,100,118718,113736
1905,503,100,118718,113742
1907,503,100,118731,113744
1910,503,100,118731,113751
1912,503,100,118740,113755
1914,504,100,118744,113755
1917,504,100,118756,113750
1920,504,100,118753,113759
1923,504,100,118767,113763
1925,506,100,118783,113760
1928,506,100,118800,113768
1930,505,100,118808,113775
1932,505,100,118808,113787
1935,506,100,118825,113787
1937,506,100,118823,113785
1940,507,100,118841,113790
1942,508,100,118866,113792
1945,508,100,118868,113798
1947,508,100,118864,113801
1950,509,101,118874,113802
1952,509,100,118888,113806
1954,511,101,118888,113810
1957,510,101,118889,113812
1959,511,101,118911,113809
1963,510,101,118913,113822
1965,511,101,118928,113816
1968,510,101,118930,113828
1970,510,101,118916,113823
1972,510,101,118922,113826
1975,510,101,118924,113825
1977,510,101,118935,113834
1980,511,101,118934,113831
1982,514,101,118934,113827
1985,515,101,118936,113837
1987,516,101,118943,113829
1990,517,101,118943,113828
1992,517,101,118950,113832
1994,517,101,118947,113832
1997,516,101,118944,113829
1999,516,101,118955,113828
2002,515,101,118951,113833
2004,514,101,118944,113827
2008,512,101,118948,113829
2010,510,102,118936,113818
2012,509,102,118941,113821
2015,509,102,118932,113814
2017,508,102,118935,113819
2020,508,102,118945,113826
2022,505,102,118937,113828
2025,504,102,118938,113825
2027,503,102,118934,113821
2030,502,102,118939,113822
2032,499,102,118927,113819
2034,498,102,118926,113831
2037,498,102,118927,113816
2039,497,102,118930,113813
2042,496,102,118913,113810
2044,496,102,118916,113813
2048,495,102,118927,113808
2050,496,103,118914,113813
2052,496,103,118920,113818
2055,497,102,118920,113811
2057,497,103,118922,113821
2060,497,103,118920,113817
2062,497,103,118922,113825
2065,497,103,118930,113814
2067,498,103,118932,113813
2070,497,103,118930,113810
2072,498,103,118930,113820
2074,498,103,118937,113825
2077,498,103,118943,113818
2079,495,103,118944,113830
2082,489,103,118942,113829
2084,474,103,118946,113827
2087,466,103,118961,113835
2089,457,103,118972,113839
2092,449,103,118969,113838
2095,442,103,118967,113845
2097,442,103,118980,113852
2100,445,103,118987,113850
2102,455,103,118992,113854
2105,474,104,118995,113852
2107,519,104,119017,113863
2110,560,104,119018,113862
2112,607,104,119028,113867
2114,653,104,119031,113875
2117,705,104,119040,113880
2119,747,104,119053,113878
2122,767,104,119062,113881
2124,758,104,119073,113894
2127,743,104,119076,113886
2129,703,105,119089,113894
2131,675,105,119094,113899
2135,650,105,119109,113901
2137,612,105,119116,113910
2140,547,105,119121,113909
2142,512,105,119135,113916
2145,487,105,119144,113921
2147,459,105,119155,113924
2150,444,105,119167,113927
2152,417,105,119188,113937
2154,409,105,119188,113942
2157,400,105,119202,113938
2159,398,105,119210,113948
2162,400,105,119210,113945
2164,407,105,119230,113948
2167,416,105,119239,113948
2169,437,105,119257,113964
2171,445,105,119259,113963
2174,459,105,119264,113968
2177,465,105,119264,113969
2180,471,105,119289,113976
2182,476,105,119296,113979
2185,478,106,119296,113989
2187,480,105,119319,113986
2190,481,106,119334,113986
2192,483,105,119350,113997
2194,484,106,119347,113999
2197,486,106,119363,114002
2199,488,106,119363,114010
2202,490,106,119378,114014
2204,492,106,119387,114014
2207,494,106,119402,114028
2209,495,106,119409,114017
2211,495,106,119409,114028
2214,495,106,119424,114035
2216,495,106,119435,114035
2220,495,106,119444,114046
2222,496,106,119444,114046
2225,497,107,119457,114055
2227,497,107,119474,114055
2230,497,107,119490,114058
2232,498,107,119495,114066
2234,498,107,119495,114077
2237,500,107,119517,114078
2239,501,107,119524,114078
2242,501,107,119534,114083
2244,501,107,119534,114090
2247,501,107,119551,114094
2249,502,107,119568,114094
2251,502,107,119589,114096
2254,503,107,119587,114101
2256,503,107,119587,114115
2259,504,107,119614,114116
2262,504,107,119628,114116
2265,505,107,119637,114125
2267,507,108,119637,114129
2270,507,108,119649,114131
2272,508,108,119669,114131
2274,509,108,119679,114136
2277,510,108,119686,114147
2279,511,108,119686,114147
2282,512,108,119679,114149
2284,512,108,119679,114150
2287,512,108,119686,114149
2289,513,108,119675,114145
2291,513,108,119675,114131
2294,514,108,119639,114131
2296,515,108,119614,114108
2299,516,108,119581,114079
2301,518,108,119581,114073
2305,519,109,119500,114073
2307,518,109,119500,114029
2310,517,108,119460,114013
2312,517,109,119350,114013
2314,517,109,119306,113986
2317,517,109,119249,113942
2319,517,109,119193,113942
2322,516,109,119193,113893
2324,516,109,119140,113872
2327,516,109,119029,113872
2329,516,109,119029,113831
2331,516,109,118983,113816
2334,516,109,118869,113816
2336,516,109,118869,113765
2339,516,109,118820,113747
2341,516,109,118776,113726
2344,516,110,118733,113726
2347,516,110,118653,113717
2350,516,110,118653,113679
2352,517,110,118570,113679
2354,517,110,118546,113674
2357,517,110,118546,113648
2359,517,110,118517,113641
2362,517,110,118468,113641
2364,517,110,118452,113625
2367,517,110,118452,113616
2369,518,110,118433,113614
2371,518,110,118407,113614
2374,518,110,118395,113605
2376,518,110,118382,113616
2379,517,110,118382,113602
2381,516,111,118393,113604
2384,516,110,118378,113604
2386,515,111,118370,113597
2390,515,111,118370,113601
2392,514,111,118364,113596
2394,513,111,118375,113596
2397,512,111,118363,113604
2399,510,111,118375,113602
2402,510,111,118378,113610
2404,509,111,118387,113613
2407,509,111,118401,113619
2409,508,111,118408,113619
2411,508,111,118408,113616
2414,506,111,118413,113618
2416,506,111,118424,113618
2419,505,111,118426,113635
2421,505,111,118436,113631
2424,504,111,118443,113633
2426,503,112,118454,113635
2429,503,112,118475,113631
2432,503,112,118475,113647
2434,504,112,118489,113647
2437,503,112,118491,113653
2439,503,112,118507,113651
2442,503,112,118519,113654
2444,503,112,118521,113667
2447,503,112,118528,113669
2449,504,112,118549,113671
2451,504,112,118553,113670
2454,504,112,118561,113674
2456,504,112,118575,113676
2459,505,112,118565,113671
2461,506,112,118574,113683
2464,506,112,118596,113677
2466,507,112,118596,113682
2469,507,112,118599,113689
2471,507,112,118599,113692
2473,507,113,118606,113693
2477,507,112,118608,113691
2479,507,113,118621,113697
2482,507,112,118622,113695
2484,508,113,118641,113699
2487,508,113,118649,113707
2489,509,113,118655,113712
2491,509,113,118662,113710
2494,511,113,118676,113719
2496,511,113,118675,113719
2499,512,113,118684,113721
2501,512,113,118695,113730
2504,512,113,118698,113734
2506,512,113,118707,113733
2509,512,113,118712,113735
2511,512,113,118722,113739
2513,511,113,118742,113751
2516,511,114,118756,113757
2519,512,113,118764,113755
2522,512,113,118771,113761
2524,512,113,118777,113770
2527,513,113,118781,113762
2529,513,113,118787,113768
2531,513,114,118796,113786
2534,513,113,118811,113774
2536,513,114,118815,113782
2539,512,114,118821,113783
2541,513,114,118840,113789
2544,512,114,118851,113793
2546,513,114,118849,113802
2549,514,114,118854,113795
2551,516,114,118855,113798
2553,516,114,118870,113796
2556,517,114,118857,113801
2558,516,114,118867,113798
2562,516,114,118858,113796
2564,516,114,118874,113804
2567,517,114,118877,113805
2569,517,114,118878,113801
2571,518,114,118885,113803
2574,520,114,118880,113802
2576,521,115,118877,113809
2579,522,115,118876,113806
2581,524,114,118879,113803
2584,524,115,118874,113803
2586,525,115,118877,113802
2589,524,115,118883,113801
2591,523,115,118880,113806
2593,521,115,118880,113801
2596,520,115,118874,113805
2598,518,115,118873,113801
2601,517,115,118868,113787
2604,516,115,118868,113797
2607,516,115,118866,113792
2609,515,115,118858,113787
2611,515,115,118865,113793
2614,513,115,118863,113792
2616,510,115,118859,113793
2619,506,115,118858,113793
2621,504,115,118864,113790
2624,503,115,118867,113798
2626,502,115,118865,113795
2629,502,115,118868,113799
2631,501,115,118874,113797
2633,502,116,118870,113795
2636,502,116,118879,113799
2638,501,116,118878,113799
2641,502,116,118873,113804
2643,503,115,118874,113796
2647,503,116,118874,113797
2649,503,116,118884,113799
2651,504,116,118891,113799
2654,504,116,118897,113807
2656,505,116,118898,113810
2659,504,116,118908,113812
2661,504,116,118907,113815
2664,504,116,118917,113820
2666,502,116,118925,113822
2669,501,116,118925,113825
2671,498,116,118930,113825
2673,494,116,118945,113825
2676,478,116,118955,113835
2678,467,116,118961,113836
2681,459,116,118961,113840
2683,450,116,118969,113845
2686,446,116,118983,113845
2689,443,116,118996,113855
2691,446,116,118996,113857
2694,455,116,119005,113861
2696,467,116,119017,113861
2699,489,116,119035,113873
2701,558,116,119044,113870
2704,598,116,119044,113876
2706,652,117,119062,113889
2709,691,117,119075,113889
2711,756,117,119093,113896
2713,767,117,119093,113897
2716,766,117,119102,113906
2718,754,117,119115,113906
2721,737,117,119139,113911
2723,695,117,119149,113923
2726,675,117,119160,113931
2728,617,117,119160,113931
2731,572,117,119167,113936
2734,530,117,119182,113939
2736,508,117,119195,113939
2739,458,117,119213,113949
2741,442,117,119213,113962
2744,423,117,119221,113969
2746,413,117,119249,113969
2749,406,117,119257,113965
2751,402,117,119257,113977
2753,406,117,119259,113982
2756,416,117,119288,113987
2758,426,117,119288,113986
2761,439,117,119306,113991
2763,448,117,119317,113991
2766,457,117,119341,114004
2768,469,117,119341,114009
2770,473,117,119351,114017
2774,476,117,119371,114017
2776,477,117,119385,114023
2779,481,117,119385,114022
2781,482,117,119401,114022
2784,484,117,119415,114036
2786,486,117,119415,114049
2789,487,117,119425,114046
2791,489,117,119440,114046
2793,490,117,119453,114052
2796,492,117,119453,114052
2798,493,117,119465,114059
2801,494,117,119478,114059
2803,495,117,119499,114066
2806,496,117,119499,114077
2808,496,117,119514,114077
2810,496,117,119529,114082
2813,497,117,119529,114089
2816,497,117,119540,114099
2819,498,117,119570,114099
2821,498,117,119571,114092
2824,501,117,119571,114105
2826,501,117,119579,114115
2829,501,117,119591,114115
2831,500,117,119591,114118
2833,500,117,119614,114125
2836,500,117,119634,114135
2838,501,117,119634,114143
2841,503,117,119646,114153
2843,503,117,119649,114148
2846,504,117,119662,114148
2848,504,117,119693,114159
2850,505,117,119693,114168
2853,505,117,119706,114168
2855,505,117,119717,114171
2859,506,117,119717,114172
2861,507,117,119729,114181
2864,507,117,119743,114181
2866,508,117,119767,114190
2869,509,117,119767,114191
2871,509,117,119775,114191
2873,510,117,119775,114195
2876,510,117,119769,114194
2878,511,117,119773,114193
2881,512,117,119765,114172
2883,512,117,119754,114167
2886,513,117,119737,114167
2888,513,117,119708,114156
2890,514,117,119684,114139
2893,514,117,119651,114124
2895,515,117,119595,114113
2898,515,117,119511,114089
2900,515,117,119511,114047
2904,516,117,119459,114021
2906,517,117,119409,114021
2909,518,117,119349,113999
2911,518,117,119300,113986
2913,518,117,119233,113953
2916,517,117,119178,113934
2918,517,117,119126,113909
2921,517,117,119067,113884
2923,518,117,119017,113867
2926,517,117,118971,113837
2928,517,117,118926,113826
2930,516,117,118873,113804
2933,516,117,118816,113785
2935,516,117,118773,113762
2938,517,117,118730,113752
2940,516,117,118697,113729
2944,516,116,118658,113717
2946,515,117,118623,113705
2949,515,117,118582,113697
2951,515,117,118557,113679
2953,515,116,118535,113671
2956,514,117,118507,113652
2958,514,116,118492,113654
2961,514,116,118464,113646
2963,514,116,118455,113640
2966,514,116,118442,113629
2968,514,116,118437,113634
2970,513,116,118428,113627
2973,513,116,118413,113625
2975,513,116,118408,113626
2978,513,116,118392,113618
2980,512,116,118402,113623
2983,512,116,118392,113618
2985,511,116,118400,113625
2989,511,116,118400,113623
2991,510,116,118412,113627
2993,508,116,118419,113628
2996,506,116,118420,113635
2998,504,116,118433,113630
3001,503,116,118431,113639
3003,503,116,118433,113631
3006,502,115,118450,113646
3008,501,116,118452,113648
3010,501,115,118458,113649
3013,501,115,118467,113645
3015,500,115,118477,113652
3018,501,115,118484,113654
3020,500,115,118490,113658
3023,499,115,118500,113668
3025,499,115,118510,113663
3028,498,115,118525,113669
3031,498,115,118524,113679
3033,498,115,118529,113681
3036,498,115,118544,113676
3038,499,115,118559,113681
3041,500,115,118560,113693
3043,500,115,118568,113692
3046,499,115,118569,113692
3048,499,115,118576,113690
3050,499,115,118589,113699
3053,500,115,118594,113708
3055,500,115,118609,113711
3058,501,114,118614,113712
3060,501,114,118616,113717
3063,501,114,118625,113713
3065,501,114,118637,113711
3068,501,114,118631,113719
3070,501,114,118642,113720
3073,501,114,118656,113725
3076,501,114,118658,113729
3078,501,114,118673,113735
3081,502,114,118665,113742
3083,503,114,118676,113735
3086,503,114,118683,113737
3088,503,114,118691,113746
3090,504,114,118705,113747
3093,504,114,118722,113754
3095,503,114,118726,113752
3098,504,113,118729,113743
3100,505,113,118746,113761
3103,505,113,118761,113769
3105,505,113,118769,113776
3108,505,113,118776,113780
3110,503,113,118793,113784
3112,503,113,118808,113790
3116,503,113,118815,113789
3118,504,113,118823,113792
3121,504,113,118830,113801
3123,504,113,118843,113799
3126,504,113,118843,113802
3128,505,113,118855,113811
3130,505,113,118862,113811
3133,505,113,118877,113819
3135,506,113,118884,113814
3138,506,112,118894,113821
3140,507,112,118893,113820
3143,507,112,118900,113829
3145,507,112,118901,113834
3148,507,112,118901,113835
3150,507,112,118915,113833
3152,507,112,118918,113833
3155,507,112,118931,113843
3158,507,112,118930,113841
3161,507,112,118930,113842
3163,507,112,118925,113842
3166,508,112,118935,113842
3168,509,112,118938,113849
3170,509,112,118938,113845
3173,510,112,118947,113842
3175,511,112,118945,113842
3178,512,112,118952,113842
3180,514,111,118940,113838
3183,514,111,118940,113840
3185,515,111,118948,113836
3188,515,111,118941,113836
3190,512,111,118945,113845
3192,511,111,118945,113844
3195,509,111,118943,113836
3197,508,111,118935,113836
3201,507,111,118942,113839
3203,505,111,118943,113832
3206,505,111,118943,113849
3208,504,111,118943,113849
3210,503,111,118944,113845
3213,502,111,118950,113848
3215,501,111,118952,113848
3218,498,111,118951,113840
3220,497,110,118951,113841
3223,496,110,118952,113846
3225,495,110,118947,113846
3228,495,110,118958,113850
3230,495,110,118958,113855
3232,495,110,118963,113855
3235,495,110,118959,113850
3237,494,110,118959,113864
3240,495,110,118976,113868
3243,495,110,118989,113868
3246,495,110,118995,113861
3248,495,110,118995,113867
3250,494,110,118999,113870
3253,494,110,119009,113870
3255,493,110,119025,113882
3258,493,109,119023,113882
3260,493,110,119027,113882
3263,493,110,119043,113885
3265,493,109,119043,113896
3268,488,109,119049,113897
3270,480,109,119059,113903
3272,470,109,119059,113900
3275,462,109,119075,113900
3277,452,109,119075,113905
3280,446,109,119107,113912
3282,437,109,119107,113922
3286,435,109,119126,113930
3288,438,109,119135,113930
3290,443,109,119152,113928
3293,471,109,119152,113947
3295,504,109,119159,113951
3298,539,108,119181,113951
3300,577,109,119206,113951
3303,658,109,119206,113964
3305,689,109,119220,113964
3308,727,109,119235,113977
3310,760,109,119235,113982
3312,756,109,119242,113982
3315,740,109,119273,113981
3317,717,109,119282,113985
3320,672,108,119282,113998
3322,637,108,119304,114006
3325,608,108,119320,114006
3328,571,108,119336,114010
3330,540,108,119345,114030
3333,481,108,119345,114026
3335,454,108,119357,114035
3338,439,108,119381,114035
3340,425,108,119397,114042
3343,403,108,119397,114051
3345,396,108,119413,114055
3348,394,108,119420,114055
3350,395,108,119446,114050
3352,398,108,119454,114071
3355,416,107,119454,114080
3357,429,108,119480,114084
3360,438,107,119495,114084
3362,447,107,119509,114090
3365,455,108,119509,114097
3367,465,107,119528,114103
3369,468,107,119529,114103
3373,470,107,119542,114117
3375,472,107,119557,114117
3378,473,107,119574,114124
3380,477,107,119589,114125
3383,478,107,119610,114132
3385,479,107,119613,114134
3388,481,107,119613,114138
3390,483,107,119634,114151
3392,484,107,119632,114151
3395,485,107,119644,114160
3397,486,107,119653,114152
3400,487,107,119670,114165
3402,488,107,119682,114169
3405,488,106,119709,114170
3407,489,107,119709,114187
3409,489,106,119724,114188
3412,491,106,119740,114188
3415,492,106,119754,114193
3418,493,106,119745,114205
3420,494,106,119776,114205
3423,494,106,119784,114212
3425,496,106,119802,114218
3428,496,106,119808,114217
3430,497,106,119823,114233
3432,497,106,119825,114228
3435,496,106,119839,114236
3437,497,106,119852,114245
3440,498,106,119863,114251
3442,499,106,119886,114251
3445,499,106,119899,114255
3447,501,106,119904,114265
3449,501,106,119923,114267
3452,501,106,119932,114270
3454,501,106,119936,114280
3458,501,106,119954,114282
3460,501,105,119964,114289
3463,502,106,119972,114303
3465,503,105,119981,114297
3468,503,105,120000,114310
3470,504,105,120009,114305
3472,504,105,120012,114306
3475,506,105,120016,114300
3477,507,105,120018,114304
3480,508,105,120011,114309
3482,509,105,119988,114299
3485,510,105,119974,114288
3487,511,105,119942,114271
3489,511,105,119905,114262
3492,511,105,119880,114229
3494,511,105,119836,114223
3497,511,105,119791,114202
3500,511,105,119735,114179
3503,511,105,119680,114156
3505,512,105,119622,114124
3508,512,105,119574,114102
3510,513,105,119513,114083
3512,513,105,119454,114059
3515,513,105,119405,114030
3517,513,105,119349,114012
3520,514,105,119292,113989
3522,514,105,119239,113971
3525,514,105,119184,113953
3527,513,105,119136,113934
3529,513,105,119097,113909
3532,513,105,119053,113890
3534,513,105,119008,113878
3537,514,105,118971,113869
3539,513,105,118932,113852
3543,514,105,118907,113837
3545,514,105,118880,113822
3548,514,105,118841,113821
3550,513,105,118820,113800
3552,513,105,118803,113801
3555,513,105,118784,113794
3557,512,105,118771,113794
3560,512,105,118754,113791
3562,512,105,118734,113791
3565,512,104,118736,113782
3567,512,105,118719,113780
3569,513,105,118725,113779
3572,512,105,118717,113777
3574,512,104,118706,113776
3577,510,104,118709,113780
3579,509,104,118717,113776
3582,508,104,118719,113785
3585,508,104,118724,113782
3588,506,105,118726,113787
3590,504,104,118731,113793
3592,503,105,118745,113789
3595,503,104,118747,113796
3597,503,104,118746,113797
3600,502,104,118763,113805
3602,501,104,118775,113802
3605,500,104,118775,113811
3607,500,104,118802,113811
3609,500,104,118806,113811
3612,499,104,118815,113822
3614,498,104,118824,113813
3617,498,104,118841,113831
3619,498,104,118843,113829
3622,498,104,118854,113835
3624,498,104,118871,113845
3628,498,104,118871,113845
3630,499,104,118886,113845
3632,499,104,118904,113845
3635,500,104,118919,113864
3637,500,104,118936,113860
3640,501,104,118936,113862
3642,501,104,118942,113861
3645,502,104,118948,113861
3647,501,104,118961,113872
3649,500,105,118961,113876
3652,499,104,118982,113880
3654,499,104,118988,113880
3657,499,104,119003,113886
3659,500,104,119007,113883
3662,500,104,119007,113892
3664,501,104,119020,113893
3667,502,104,119029,113893
3670,504,104,119047,113899
3672,504,104,119047,113908
3675,504,104,119054,113908
3677,505,104,119072,113908
3680,505,104,119078,113910
3682,506,104,119098,113920
3685,506,104,119102,113934
3687,506,104,119102,113923
3689,506,104,119114,113940
3692,506,104,119134,113943
3694,506,104,119144,113943
3697,506,104,119160,113953
3699,506,104,119160,113953
3702,506,104,119173,113957
3704,507,104,119189,113957
3707,507,104,119207,113960
3709,508,104,119211,113967
3712,508,104,119211,113982
3715,509,105,119243,113988
3717,509,104,119261,113988
3720,509,104,119264,113991
3722,509,105,119264,113998
3725,509,104,119278,114003
3727,509,104,119297,114003
3729,510,105,119314,114009
3732,512,104,119321,114018
3734,513,104,119321,114012
3737,513,104,119330,114012
3739,514,104,119334,114020
3742,514,104,119341,114032
3744,513,104,119341,114028
3747,512,104,119352,114035
3749,512,104,119361,114035
3751,511,105,119373,114035
3755,512,104,119374,114041
3757,512,105,119372,114041
3760,514,104,119372,114044
3762,516,105,119384,114043
3765,518,104,119382,114043
3767,520,105,119382,114049
3769,520,104,119380,114043
3772,521,105,119380,114043
3774,521,105,119385,114045
3777,520,105,119389,114041
3779,519,105,119389,114041
3782,517,105,119389,114043
3784,516,105,119395,114045
3787,515,105,119386,114045
3789,514,105,119386,114044
3791,513,105,119396,114040
3794,513,105,119395,114040
3796,512,105,119395,114044
3800,510,105,119395,114042
3802,508,105,119390,114040
3805,506,105,119392,114040
3807,505,105,119395,114046
3809,504,105,119395,114046
3812,503,105,119388,114046
3814,502,105,119393,114050
3817,501,105,119393,114048
3819,501,105,119387,114045
3822,501,105,119396,114045
3824,500,105,119399,114052
3827,499,105,119399,114055
3829,497,105,119400,114049
3831,497,105,119401,114049
3834,498,105,119412,114048
3836,498,105,119426,114065
3840,501,105,119426,114058
3842,502,105,119423,114062
3845,502,105,119434,114062
3847,501,105,119437,114064
3849,500,105,119437,114071
3852,499,105,119442,114079
3854,499,105,119447,114079
3857,499,105,119456,114084
3859,498,105,119460,114091
3862,495,105,119468,114086
3864,482,105,119482,114095
3867,473,105,119505,114098
3869,463,105,119507,114107
3871,455,105,119507,114108
3874,447,106,119513,114107
3876,446,106,119523,114107
3879,448,106,119540,114126
3881,456,106,119551,114119
3885,466,106,119554,114128
3887,488,106,119576,114130
3889,522,105,119583,114137
3892,569,106,119582,114138
3894,655,106,119603,114143
3897,692,106,119614,114147
3899,731,106,119624,114154
3902,756,106,119648,114159
3904,754,106,119667,114169
3907,735,106,119670,114171
3909,707,106,119679,114180
3911,684,106,119695,114184
3914,651,106,119711,114186
3916,604,106,119730,114197
3919,574,106,119737,114203
3921,542,106,119741,114204
3924,516,106,119755,114209
3927,471,107,119767,114217
3929,453,106,119781,114221
3932,438,106,119797,114218
3934,426,106,119812,114223
3937,409,107,119826,114235
3939,404,107,119841,114238
3942,403,106,119851,114248
3944,405,106,119866,114247
3947,409,106,119879,114253
3949,425,107,119885,114257
3951,436,107,119892,114268
3954,445,106,119909,114273
3956,455,107,119917,114276
3959,471,107,119939,114281
3961,475,107,119950,114286
3964,478,107,119958,114295
3966,480,107,119970,114297
3969,481,107,119985,114302
3972,484,107,119986,114297
3974,486,107,120003,114307
3977,487,107,120022,114322
3979,487,107,120037,114316
3982,488,107,120048,114325
3984,490,107,120054,114339
3987,491,107,120068,114338
3989,492,107,120080,114335
3991,492,107,120097,114341
3994,494,107,120099,114347
3996,494,107,120116,114361
3999,495,107,120130,114361
4001,496,107,120141,114362
4004,498,107,120146,114375
4006,501,107,120167,114371
4008,501,107,120179,114382
4012,502,107,120184,114381
4014,501,107,120201,114389
4017,501,107,120209,114394
4019,502,107,120222,114397
4022,502,108,120234,114399
4024,502,107,120242,114402
4027,503,107,120252,114409
4029,505,107,120267,114416
4031,505,108,120278,114425
4034,505,108,120290,114421
4036,506,108,120306,114417
4039,507,108,120311,114437
4041,507,108,120327,114441
4044,508,108,120334,114448
4046,508,108,120348,114453
4048,508,108,120370,114456
4051,509,108,120383,114464
4054,509,108,120385,114473
4057,510,108,120405,114474
4059,511,108,120416,114479
4062,511,108,120426,114486
4064,512,108,120431,114497
4067,513,108,120431,114496
4069,514,108,120438,114494
4071,515,108,120440,114493
4074,515,108,120433,114489
4076,514,108,120425,114478
4079,514,108,120402,114470
4081,513,109,120380,114458
4084,513,108,120346,114435
4086,513,109,120301,114423
4088,513,109,120301,114399
4091,513,109,120207,114384
4093,514,109,120147,114351
4097,514,109,120099,114327
4099,515,109,120045,114301
4102,515,109,119983,114280
4104,515,109,119935,114263
4107,515,109,119935,114236
4109,515,109,119820,114215
4111,515,109,119765,114215
4114,514,109,119721,114173
4116,514,109,119663,114150
4119,514,109,119663,114129
4121,514,109,119563,114108
4124,515,109,119520,114108
4126,515,109,119485,114075
4128,515,110,119444,114064
4131,515,110,119414,114051
4133,515,110,119414,114036
4136,515,110,119332,114023
4139,515,110,119305,114007
4142,515,110,119305,113991
4144,515,110,119258,113988
4147,515,110,119236,113988
4149,516,110,119227,113982
4151,515,110,119205,113967
4154,515,110,119192,113967
4156,515,110,119192,113966
4159,515,110,119179,113968
4161,515,110,119175,113965
4164,514,111,119175,113965
4166,513,110,119164,113959
4168,513,110,119163,113959
4171,512,111,119172,113966
4173,511,111,119172,113961
4176,511,110,119169,113965
4178,511,111,119182,113965
4182,510,111,119192,113970
4184,509,111,119195,113977
4187,508,111,119191,113976
4189,506,111,119200,113971
4191,506,111,119213,113971
4194,505,111,119233,113980
4196,504,111,119233,113987
4199,501,111,119242,113998
4201,500,111,119250,113998
4204,499,111,119278,113997
4206,499,111,119278,114002
4208,499,111,119280,114011
4211,499,111,119301,114011
4213,500,112,119328,114015
4216,500,112,119330,114026
4218,501,112,119330,114039
4221,501,112,119351,114040
4224,501,112,119380,114040
4227,501,112,119391,114046
4229,500,112,119391,114048
4231,499,112,119401,114055
4234,499,112,119416,114055
4236,499,112,119438,114064
4239,500,112,119447,114075
4241,502,112,119447,114076
4244,502,112,119463,114073
4246,502,112,119477,114073
4248,501,112,119495,114085
4251,502,112,119503,114085
4253,502,112,119520,114085
4256,503,112,119520,114102
4258,503,113,119531,114104
4261,504,113,119549,114104
4263,504,113,119549,114105
4267,504,113,119563,114115
4269,505,113,119581,114115
4271,505,113,119591,114126
4274,506,113,119591,114130
4276,507,113,119605,114132
4279,508,113,119625,114132
4281,508,113,119640,114138
4284,509,113,119640,114148
4286,509,113,119664,114148
4288,509,113,119672,114155
4291,510,113,119672,114168
4293,510,113,119692,114174
4296,510,113,119720,114174
4298,510,113,119733,114184
4301,511,114,119733,114187
4303,510,113,119744,114192
4306,510,114,119756,114192
4308,511,114,119793,114196
4311,511,114,119796,114209
4314,512,114,119796,114208
4316,513,114,119808,114213
4319,514,114,119823,114213
4321,514,114,119836,114223
4324,514,114,119836,114227
4326,515,114,119846,114218
4328,515,114,119849,114218
4331,515,114,119862,114233
4333,515,114,119865,114231
4336,516,115,119865,114235
4338,517,115,119872,114235
4341,518,115,119876,114237
4343,518,115,119877,114245
4346,519,115,119877,114244
4348,520,115,119888,114246
4350,521,115,119886,114246
4354,521,115,119885,114243
4356,522,115,119892,114247
4359,522,115,119895,114242
4361,522,115,119891,114245
4364,520,115,119895,114244
4366,519,115,119894,114248
4368,518,115,119894,114245
4371,516,115,119897,114245
4373,514,115,119882,114239
4376,512,116,119894,114238
4378,510,116,119903,114239
4381,508,116,119889,114233
4383,506,116,119881,114239
4386,505,116,119877,114235
4388,503,116,119876,114232
4390,501,116,119866,114231
4393,501,116,119866,114235
4396,502,116,119871,114228
4399,502,116,119863,114230
4401,502,116,119864,114224
4404,502,116,119870,114224
4406,502,116,119864,114225
4408,502,116,119857,114222
4411,502,116,119854,114226
4413,502,116,119864,114223
4416,501,116,119853,114224
4418,500,117,119848,114221
4421,500,116,119857,114228
4423,500,117,119863,114220
4426,501,117,119868,114229
4428,502,117,119879,114228
4430,502,117,119877,114233
4433,502,117,119876,114233
4435,502,117,119884,114229
4439,500,117,119890,114235
4441,490,117,119883,114236
4444,483,117,119891,114244
4446,474,117,119908,114241
4448,466,117,119907,114243
4451,455,117,119915,114249
4453,453,117,119928,114249
4456,453,117,119930,114248
4458,457,117,119931,114256
4461,467,117,119934,114259
4463,496,117,119941,114268
4466,523,117,119952,114265
4468,560,118,119973,114270
4470,603,118,119978,114274
4473,655,118,119989,114290
4475,720,118,120002,114286
4478,751,118,120006,114282
4481,763,118,120003,114291
4484,757,118,120017,114292
4486,731,118,120027,114298
4488,695,118,120038,114298
4491,642,118,120052,114309
4493,620,118,120061,114315
4496,598,119,120076,114318
4498,566,119,120088,114323
4501,531,119,120104,114327
4503,489,119,120107,114322
4506,468,119,120115,114329
4508,450,119,120124,114342
4510,437,119,120140,114345
4513,423,119,120140,114348
4515,410,119,120165,114356
4518,405,119,120177,114359
4520,403,119,120187,114359
4524,405,119,120187,114360
4526,411,119,120206,114373
4528,421,119,120211,114371
4531,442,119,120233,114378
4533,451,119,120241,114389
4536,458,119,120253,114395
4538,468,119,120262,114392
4541,476,119,120273,114389
4543,481,119,120288,114403
4546,484,120,120301,114410
4548,486,120,120311,114415
4550,487,119,120319,114417
4553,489,120,120333,114422
4555,491,120,120346,114429
4558,492,120,120361,114433
4560,492,120,120371,114447
4563,494,120,120382,114452
4566,494,120,120405,114454
4568,496,120,120412,114441
4571,498,120,120414,114457
4573,499,120,120425,114455
4576,500,120,120436,114455
4578,501,120,120448,114464
4581,501,120,120461,114467
4583,501,120,120471,114478
4586,502,120,120479,114480
4588,502,120,120492,114487
4590,503,120,120494,114486
4593,504,120,120515,114494
4595,504,121,120514,114495
4598,504,120,120514,114502
4600,505,121,120545,114504
4603,506,121,120561,114504
4605,509,121,120574,114515
4608,509,121,120581,114511
4611,509,121,120584,114520
4613,509,121,120584,114525
4616,509,121,120615,114533
4618,509,121,120624,114532
4621,509,121,120624,114537
4623,510,121,120635,114541
4626,511,121,120654,114541
4628,511,121,120674,114555
4630,512,121,120689,114555
4633,512,121,120697,114562
4635,512,121,120697,114562
4638,513,122,120713,114567
4640,514,122,120718,114567
4643,514,122,120735,114583
4645,514,122,120732,114579
4647,514,122,120732,114578
4651,514,122,120725,114578
4653,514,122,120714,114578
4656,516,122,120696,114559
4658,517,122,120696,114546
4661,518,122,120676,114536
4663,518,122,120605,114536
4666,518,122,120569,114512
4668,518,122,120521,114476
4670,517,122,120521,114452
4673,517,123,120412,114432
4675,518,122,120350,114432
4678,517,123,120302,114385
4680,518,122,120302,114357
4683,518,122,120242,114332
4685,518,123,120123,114332
4687,517,123,120081,114309
4690,517,123,120028,114263
4692,517,123,120028,114249
4696,516,123,119920,114229
4698,516,123,119874,114229
4701,516,123,119833,114214
4703,517,123,119833,114171
4706,517,123,119787,114156
4708,517,123,119693,114156
4710,517,123,119673,114146
4713,516,123,119637,114108
4715,516,123,119595,114108
4718,517,123,119577,114095
4720,517,123,119577,114085
4723,517,123,119548,114078
4725,517,123,119508,114073
4727,517,124,119508,114058
4730,517,124,119480,114058
4732,517,124,119479,114052
4736,516,124,119460,114042
4738,515,124,119460,114043
4741,515,124,119448,114043
4743,514,124,119448,114039
4746,513,124,119453,114041
4748,513,124,119442,114041
4750,513,124,119450,114040
4753,512,124,119445,114042
4755,512,124,119456,114042
4758,510,124,119456,114046
4760,509,124,119455,114055
4763,508,124,119466,114055
4765,508,124,119466,114059
4767,508,124,119481,114056
4770,508,124,119494,114056
4772,507,124,119501,114061
4775,506,124,119501,114065
4777,505,124,119517,114065
4781,504,125,119517,114077
4783,504,124,119521,114077
4786,504,125,119542,114077
4788,504,125,119542,114092
4790,504,125,119571,114090
4793,504,125,119577,114090
4795,504,125,119577,114088
4798,502,125,119586,114101
4800,502,125,119600,114102
4803,503,125,119615,114102
4805,503,125,119638,114113
4807,504,125,119638,114120
4810,504,125,119663,114120
4812,504,125,119663,114120
4815,504,125,119672,114136
4817,504,125,119682,114131
4820,504,125,119692,114131
4823,504,125,119706,114139
4826,505,125,119706,114146
4828,506,125,119736,114146
4830,507,125,119736,114151
4833,508,125,119740,114160
4835,509,125,119742,114154
4838,509,125,119751,114162
4840,509,126,119772,114171
4843,509,125,119776,114171
4845,508,126,119787,114171
4847,508,126,119802,114184
4850,508,126,119810,114181
4852,508,126,119821,114187
4855,508,126,119847,114189
4857,509,126,119847,114197
4860,509,126,119847,114197
4862,510,126,119866,114203
4866,511,126,119897,114207
4868,511,126,119891,114202
4870,512,126,119904,114211
4873,511,126,119923,114223
4875,511,126,119937,114228
4878,511,126,119952,114230
4880,511,126,119960,114230
4883,512,126,119961,114246
4885,513,126,119967,114245
4887,514,126,119985,114248
4890,515,126,120001,114254
4892,515,126,120015,114254
4895,515,126,120020,114266
4897,515,126,120030,114258
4900,515,126,120045,114267
4902,516,126,120059,114267
4905,516,126,120060,114269
4908,516,126,120064,114279
4910,516,126,120070,114277
4913,516,126,120072,114281
4915,517,126,120075,114280
4918,517,126,120075,114287
4920,518,126,120083,114280
4923,518,126,120089,114286
4925,519,126,120100,114285
4927,520,126,120099,114284
4930,523,126,120108,114294
4932,523,127,120108,114283
4935,523,126,120103,114277
4937,523,127,120097,114285
4940,523,127,120099,114288
4942,522,127,120098,114285
4945,521,127,120091,114286
4947,521,127,120110,114278
4950,519,127,120099,114280
4953,518,127,120101,114278
4955,516,127,120098,114283
4958,515,127,120088,114272
4960,513,127,120092,114276
4963,511,127,120082,114285
4965,510,127,120077,114278
4967,508,127,120082,114274
4970,506,127,120071,114265
4972,505,127,120072,114269
4975,503,127,120076,114269
4977,502,127,120078,114269
4980,501,127,120081,114267
4982,500,127,120077,114260
4985,499,127,120071,114255
4987,500,127,120059,114270
4989,500,127,120064,114267
4993,500,127,120066,114266
4995,500,127,120062,114268
4998,500,127,120068,114260
5000,500,127,120072,114259
5003,500,127,120069,114260
5005,501,127,120070,114261
5007,501,127,120070,114265
5010,502,127,120075,114272
5012,502,127,120082,114276
5015,502,127,120081,114270
5017,502,127,120083,114272
5020,502,127,120091,114279
5022,497,127,120086,114281
5025,491,127,120103,114276
5027,482,127,120108,114282
5029,473,127,120120,114290
5032,462,127,120121,114294
5035,455,127,120127,114296
5038,451,127,120134,114305
5040,451,127,120145,114301
5043,455,127,120145,114298
5045,470,127,120161,114304
5047,487,127,120170,114305
5050,508,127,120175,114301
5052,548,127,120184,114311
5055,627,127,120186,114321
5057,672,127,120208,114320
5060,707,127,120219,114332
5062,747,127,120219,114331
5065,763,128,120228,114335
5067,756,128,120237,114341
5069,734,128,120254,114341
5072,712,128,120275,114350
5074,679,128,120271,114344
5078,626,128,120276,114350
5080,593,128,120295,114358
5083,563,128,120295,114360
5085,523,128,120312,114361
5087,497,128,120316,114361
5090,454,128,120335,114376
5092,438,128,120350,114374
5095,426,128,120356,114387
5097,413,128,120369,114385
5100,407,128,120382,114382
5102,401,127,120382,114387
5105,402,128,120382,114391
5107,408,128,120405,114398
5109,415,128,120418,114398
5112,435,128,120433,114411
5114,445,128,120448,114413
5117,453,128,120448,114414
5120,463,128,120470,114418
5123,468,128,120476,114418
5125,476,128,120493,114426
5127,478,128,120493,114430
5130,480,128,120509,114439
5132,482,128,120519,114439
5135,484,128,120531,114447
5137,486,128,120551,114450
5140,487,128,120551,114457
5142,488,128,120568,114463
5145,489,128,120573,114463
5147,491,128,120585,114469
5149,492,128,120585,114475
5152,493,128,120599,114472
5154,494,128,120613,114472
5157,495,128,120629,114482
5159,495,128,120637,114484
5163,496,128,120644,114500
5165,496,128,120644,114501
5167,496,128,120660,114507
5170,497,128,120681,114512
5172,497,128,120691,114512
5175,499,128,120712,114510
5177,499,128,120712,114521
5180,499,128,120713,114524
5182,500,128,120735,114524
5185,500,128,120745,114533
5187,500,128,120745,114538
5189,501,128,120762,114542
5192,502,128,120781,114547
5194,503,128,120781,114545
5197,504,128,120803,114555
5199,504,128,120817,114555
5202,504,128,120833,114562
5204,505,128,120833,114571
5207,506,128,120838,114580
5210,507,128,120868,114586
5212,508,128,120878,114586
5215,508,128,120878,114594
5217,509,128,120904,114594
5220,509,128,120908,114606
5222,508,128,120908,114599
5225,508,128,120911,114591
5227,509,128,120920,114591
5229,509,128,120914,114606
5232,510,128,120903,114588
5234,510,128,120887,114588
5237,512,128,120887,114566
5239,513,128,120863,114550
5242,514,128,120794,114550
5244,515,128,120794,114515
5246,515,128,120759,114489
5250,515,128,120647,114489
5252,515,128,120551,114470
5255,514,128,120551,114420
5257,514,128,120532,114391
5260,514,128,120400,114391
5262,515,128,120338,114368
5265,515,128,120338,114317
5267,515,128,120216,114317
5269,515,128,120161,114294
5272,515,128,120161,114247
5274,515,128,120107,114227
5277,515,128,119996,114227
5279,515,128,119938,114207
5282,516,128,119938,114164
5284,515,128,119892,114140
5286,515,128,119844,114140
5289,515,128,119762,114132
5292,515,128,119721,114114
5295,516,128,119721,114082
5297,516,128,119697,114075
5300,516,128,119632,114075
5302,515,128,119612,114067
5305,515,128,119612,114042
5307,513,128,119579,114031
5309,513,128,119563,114031
5312,513,128,119526,114028
5314,512,128,119512,114023
5317,512,128,119512,114017
5319,512,128,119511,114015
5322,512,128,119483,114009
5324,512,128,119474,114010
5326,513,128,119474,114005
5329,511,128,119484,114008
5331,511,128,119474,114008
5335,510,128,119471,114006
5337,508,128,119475,114000
5340,508,128,119471,114005
5342,508,128,119478,114007
5345,507,128,119489,113999
5347,506,128,119491,114009
5349,505,128,119491,114014
5352,504,128,119496,114014
5354,503,128,119507,114016
5357,502,128,119521,114015
5359,502,128,119518,114017
5362,502,128,119536,114014
5364,501,128,119551,114025
5366,500,128,119556,114022
5369,499,128,119562,114033
5371,499,128,119565,114026
5374,499,128,119582,114030
5377,501,128,119577,114040
5380,501,128,119601,114034
5382,500,128,119611,114047
5385,498,128,119621,114051
5387,497,128,119632,114058
5389,497,128,119639,114056
5392,497,128,119649,114065
5394,497,128,119653,114068
5397,498,128,119664,114057
5399,499,128,119663,114067
5402,499,128,119672,114077
5404,500,128,119684,114076
5406,500,128,119692,114073
5409,502,128,119712,114076
5411,502,128,119706,114079
5414,502,128,119710,114074
5416,503,128,119722,114090
5420,504,128,119727,114095
5422,505,128,119737,114086
5425,505,128,119742,114098
5427,504,128,119756,114095
5429,504,128,119758,114099
5432,504,128,119764,114096
5434,505,128,119784,114101
5437,505,128,119774,114100
5439,506,128,119789,114105
5442,508,128,119793,114104
5444,509,128,119805,114112
5446,509,128,119817,114112
5449,508,128,119815,114117
5451,507,128,119827,114127
5454,507,128,119843,114128
5456,508,128,119861,114135
5459,509,128,119873,114135
5462,510,128,119884,114138
5465,509,128,119882,114142
5467,509,128,119889,114144
5469,508,128,119901,114149
5472,508,128,119909,114151
5474,507,128,119918,114154
5477,507,128,119932,114154
5479,508,128,119937,114164
5482,509,128,119959,114163
5484,510,128,119967,114175
5486,511,128,119975,114178
5489,513,128,119971,114178
5491,514,128,119984,114180
5494,514,128,119998,114188
5496,515,128,119998,114185
5499,516,128,120002,114186
5501,516,128,120007,114191
5505,517,128,120017,114184
5507,517,128,120016,114191
5509,516,128,120025,114192
5512,516,128,120020,114194
5514,517,128,120012,114194
5517,518,128,120018,114196
5519,520,128,120016,114199
5522,520,128,120022,114186
5524,521,128,120015,114190
5526,520,128,120021,114190
5529,518,128,120029,114187
5531,516,128,120019,114193
5534,513,128,120020,114171
5536,512,128,120024,114191
5539,511,128,120024,114192
5541,510,128,120033,114191
5544,509,128,120025,114193
5547,507,128,120026,114194
5549,507,128,120020,114183
5552,506,128,120022,114185
5554,505,128,120013,114187
5557,504,128,120015,114180
5559,503,128,120011,114177
5562,503,128,120011,114185
5564,502,128,120011,114181
5566,501,128,120001,114181
5569,499,128,120009,114181
5571,498,128,120003,114170
5574,497,128,120005,114172
5576,497,128,119999,114178
5579,497,128,120003,114174
5581,497,128,120006,114174
5584,497,128,120006,114171
5586,498,128,119998,114168
5588,498,128,119995,114168
5592,498,128,120005,114176
5594,498,128,120009,114172
5597,498,128,120009,114173
5599,499,128,120006,114170
5602,499,128,120010,114170
5604,500,128,120020,114178
5606,499,128,120020,114179
5609,495,128,120028,114175
5611,489,128,120026,114175
5614,481,128,120040,114185
5616,463,128,120045,114180
5619,455,128,120045,114190
5621,448,128,120052,114198
5624,446,128,120061,114198
5626,445,128,120066,114204
5628,450,128,120066,114205
5632,464,128,120073,114199
5634,479,128,120086,114199
5637,502,128,120094,114204
5639,572,128,120100,114213
5642,604,129,120108,114220
5644,683,128,120108,114219
5646,730,128,120121,114223
5649,764,129,120140,114227
5651,773,129,120148,114227
5654,760,129,120155,114239
5656,740,129,120155,114244
5659,709,129,120170,114242
5661,685,129,120183,114242
5664,652,129,120201,114250
5666,585,129,120203,114256
5668,552,129,120203,114256
5671,512,129,120218,114264
5673,487,129,120230,114264
5677,463,129,120245,114271
5679,433,129,120245,114275
5682,418,129,120258,114282
5684,410,129,120279,114282
5686,403,129,120296,114283
5689,401,129,120296,114299
5691,406,129,120301,114296
5694,412,129,120330,114296
5696,423,129,120337,114308
5699,433,129,120345,114310
5701,450,128,120345,114316
5704,460,129,120354,114312
5706,465,129,120376,114312
5708,469,129,120389,114318
5711,474,129,120398,114323
5713,475,129,120401,114323
5716,479,129,120401,114331
5719,481,129,120414,114344
5722,482,129,120439,114344
5724,485,129,120439,114349
5726,486,128,120457,114353
5729,488,129,120469,114353
5731,488,129,120488,114360
5734,489,129,120496,114368
5736,489,129,120503,114368
5739,491,129,120503,114372
5741,493,129,120512,114370
5744,494,129,120527,114370
5746,495,129,120527,114380
5748,497,129,120541,114384
5751,497,129,120546,114384
5753,498,129,120562,114384
5756,498,129,120562,114390
5758,498,129,120567,114391
5762,498,129,120582,114391
5764,497,129,120604,114394
5766,498,129,120604,114406
5769,498,129,120614,114406
5771,498,129,120621,114413
5774,499,129,120621,114423
5776,499,129,120627,114422
5779,500,129,120652,114422
5781,501,129,120656,114422
5784,502,129,120656,114437
5786,503,129,120673,114435
5788,504,129,120677,114435
5791,504,129,120712,114436
5793,504,129,120713,114449
5796,506,129,120713,114454
5798,508,129,120733,114459
5801,508,129,120750,114459
5804,508,129,120751,114470
5806,509,129,120751,114469
5809,508,129,120761,114467
5811,508,129,120761,114467
5814,508,129,120759,114474
5816,508,129,120754,114473
5819,509,129,120751,114460
5821,510,129,120752,114455
5824,510,129,120697,114445
5826,511,129,120697,114412
5828,511,129,120659,114412
5831,511,129,120623,114399
5833,512,129,120569,114373
5836,513,129,120519,114350
5838,516,129,120490,114330
5841,517,130,120415,114306
5843,516,129,120345,114283
5846,515,129,120283,114261
5849,514,129,120227,114222
5851,513,129,120163,114197
5854,513,129,120099,114177
5856,513,129,120035,114153
5859,513,130,119974,114127
5861,513,129,119924,114102
5864,513,130,119868,114075
5866,513,130,119796,114052
5868,514,129,119751,114033
5871,514,129,119698,114017
5873,514,130,119656,113990
5876,514,130,119609,113981
5878,515,129,119558,113960
5881,515,129,119518,113940
5883,515,130,119477,113929
5885,515,129,119444,113913
5889,515,130,119419,113893
5891,515,130,119385,113896
5894,515,130,119363,113878
5896,514,130,119336,113871
5899,513,130,119314,113858
5901,513,130,119285,113847
5904,512,129,119271,113844
5906,512,130,119249,113833
5908,512,129,119231,113834
5911,511,129,119216,113832
5913,511,130,119216,113820
5916,510,130,119214,113817
5918,509,130,119207,113818
5921,509,130,119191,113822
5923,509,130,119190,113815
5925,509,129,119195,113810
5928,508,130,119183,113815
5931,507,129,119175,113818
5934,506,130,119187,113820
5936,505,130,119194,113809
5939,504,129,119199,113815
5941,502,129,119205,113814
5944,501,129,119202,113818
5946,500,130,119202,113820
5948,499,129,119210,113809
5951,498,130,119211,113816
5953,497,129,119208,113823
5956,496,130,119220,113818
5958,496,130,119234,113824
5961,496,129,119223,113828
5963,497,130,119239,113832
5965,498,130,119244,113836
5968,498,130,119249,113834
5970,499,130,119257,113830
5974,499,130,119257,113839
5976,499,130,119263,113839
5979,500,130,119276,113838
5981,500,130,119274,113844
5984,500,130,119284,113843
5986,501,130,119283,113848
5988,501,130,119295,113851
5991,500,130,119299,113851
5993,500,130,119293,113833
5996,500,130,119295,113845
5998,500,130,119312,113857
6001,500,130,119307,113850
6003,500,130,119315,113860
6005,501,130,119322,113852
6008,501,130,119324,113854
6010,502,130,119325,113853
6013,503,130,119332,113861
6016,503,130,119344,113853
6019,503,130,119345,113857
6021,504,130,119352,113863
6024,505,130,119352,113865
6026,506,130,119362,113863
6028,507,130,119364,113863
6031,507,130,119374,113875
6033,508,130,119384,113882
6036,509,130,119391,113878
6038,509,130,119402,113885
6041,508,130,119411,113886
6043,507,130,119426,113881
6045,506,130,119426,113902
6048,505,130,119448,113903
6050,506,130,119457,113907
6053,506,130,119474,113911
6055,506,130,119476,113908
6059,506,130,119480,113908
6061,507,130,119497,113911
6064,507,130,119497,113919
6066,507,130,119507,113925
6068,508,130,119515,113925
6071,508,130,119528,113932
6073,509,130,119536,113924
6076,508,130,119536,113938
6078,509,130,119546,113932
6081,510,130,119548,113932
6083,512,130,119557,113940
6085,512,130,119561,113945
6088,513,130,119568,113940
6090,512,130,119568,113946
6093,512,130,119575,113949
6095,512,130,119574,113946
6098,512,130,119574,113953
6100,512,130,119587,113945
6104,513,130,119593,113945
6106,516,130,119592,113952
6108,517,130,119589,113945
6111,519,131,119589,113942
6113,519,131,119589,113947
6116,518,130,119587,113949
6118,517,131,119593,113952
6121,517,130,119593,113943
6123,517,131,119583,113941
6125,518,131,119586,113941
6128,517,131,119577,113942
6130,515,131,119577,113939
6133,512,131,119579,113941
6135,511,131,119568,113941
6138,509,131,119579,113938
6140,507,131,119578,113936
6144,507,131,119571,113943
6146,505,131,119570,113936
6148,504,131,119566,113936
6151,503,131,119573,113926
6153,503,131,119573,113934
6156,502,131,119567,113933
6158,501,131,119560,113933
6161,500,131,119565,113926
6163,500,131,119565,113929
6165,499,131,119562,113929
6168,499,131,119550,113929
6170,499,131,119559,113927
6173,498,131,119567,113934
6175,498,131,119567,113938
6178,498,131,119568,113937
6180,499,131,119566,113937
6183,499,131,119570,113931
6185,499,131,119570,113939
6188,499,131,119575,113934
6191,500,131,119566,113934
6193,500,131,119588,113931
6196,500,131,119584,113941
6198,500,131,119584,113934
6201,500,131,119585,113936
6203,499,131,119592,113936
6205,496,131,119601,113947
6208,486,131,119616,113943
6210,481,131,119613,113943
6213,464,131,119613,113953
6215,454,131,119615,113957
6218,449,131,119632,113957
6220,443,131,119632,113962
6223,442,131,119652,113967
6225,446,131,119658,113967
6227,453,131,119674,113966
6231,487,131,119674,113970
6233,525,131,119676,113979
6236,561,131,119691,113979
6238,600,131,119706,113984
6241,680,131,119706,113989
6243,710,131,119714,113989
6245,747,131,119734,113995
6248,777,131,119734,114005
6250,771,131,119738,114011
6253,756,132,119753,114011
6255,732,132,119769,114012
6258,681,132,119769,114026
6260,641,132,119777,114030
6263,609,132,119792,114030
6265,569,132,119814,114028
6267,537,132,119817,114033
6270,477,132,119817,114039
6273,451,132,119832,114050
6276,436,132,119843,114050
6278,423,132,119850,114055
6281,411,132,119850,114064
6283,398,132,119872,114068
6285,397,132,119888,114068
6288,400,132,119902,114076
6290,406,132,119916,114076
6293,416,131,119916,114077
6295,438,131,119937,114087
6298,448,132,119954,114087
6300,456,132,119959,114095
6303,463,132,119959,114104
6305,472,132,119982,114105
6307,475,132,119989,114105
6310,477,132,120000,114119
6312,479,132,120012,114122
6316,480,132,120024,114127
6318,483,132,120035,114129
6321,483,132,120058,114132
6323,484,132,120067,114140
6325,485,132,120067,114149
6328,485,132,120080,114149
6330,486,131,120080,114139
6333,487,132,120102,114145
6335,490,132,120111,114152
6338,491,131,120114,114152
6340,492,132,120118,114155
6343,492,132,120129,114164
6345,493,132,120148,114168
6347,495,132,120147,114170
6350,497,132,120149,114168
6352,499,132,120163,114179
6355,498,132,120171,114184
6358,498,132,120188,114185
6361,497,132,120196,114188
6363,495,131,120205,114203
6365,494,132,120229,114201
6368,494,132,120219,114204
6370,494,132,120232,114211
6373,495,131,120249,114214
6375,496,131,120258,114215
6378,497,131,120268,114217
6380,499,132,120274,114218
6383,500,131,120290,114234
6385,501,132,120298,114236
6387,501,132,120313,114238
6390,502,132,120322,114247
6392,503,131,120324,114248
6395,504,131,120336,114255
6397,504,132,120350,114247
6401,504,132,120358,114261
6403,506,132,120367,114264
6405,507,132,120367,114262
6408,508,132,120372,114260
6410,509,132,120375,114267
6413,510,132,120374,114261
6415,511,132,120368,114251
6418,512,132,120335,114251
6420,512,132,120317,114229
6423,513,132,120284,114211
6425,513,132,120244,114196
6427,512,132,120199,114185
6430,512,132,120154,114153
6432,511,132,120097,114133
6435,512,132,120037,114099
6437,512,132,119977,114076
6440,513,132,119919,114058
6443,513,132,119854,114033
6445,513,132,119793,114013
6448,513,132,119733,113980
6450,513,132,119659,113955
6453,513,132,119601,113934
6455,513,132,119535,113910
6458,513,132,119488,113884
6460,513,132,119431,113857
6463,514,132,119367,113842
6465,513,132,119312,113818
6467,513,132,119259,113801
6470,513,132,119208,113766
6472,513,132,119156,113754
6475,515,132,119109,113735
6477,514,132,119068,113718
6480,514,132,119032,113698
6482,513,132,118995,113686
6484,513,132,118961,113673
6488,512,132,118928,113671
6490,512,132,118904,113660
6493,512,132,118877,113643
6495,511,132,118852,113640
6498,511,132,118839,113631
6500,512,132,118817,113623
6503,512,132,118810,113619
6505,512,132,118787,113613
6507,512,132,118779,113610
6510,512,132,118766,113615
6512,512,132,118757,113609
6515,512,132,118749,113609
6517,511,132,118751,113603
6520,511,132,118736,113599
6522,510,132,118745,113599
6524,509,132,118746,113577
6528,509,132,118741,113607
6530,508,132,118734,113600
6533,507,132,118745,113601
6535,507,132,118740,113601
6538,507,132,118753,113605
6540,506,132,118762,113606
6543,506,132,118760,113601
6545,505,132,118767,113602
6547,504,133,118773,113607
6550,503,133,118772,113617
6552,502,133,118777,113612
6555,502,133,118777,113619
6557,502,132,118795,113622
6560,502,133,118803,113622
6562,502,133,118819,113631
6564,502,133,118825,113628
6567,502,133,118829,113634
6569,503,133,118829,113628
6573,503,133,118845,113635
6575,503,133,118850,113641
6578,502,133,118850,113637
6580,503,133,118875,113638
6583,503,133,118874,113638
6585,504,133,118890,113650
6587,504,133,118893,113652
6590,505,133,118902,113650
6592,506,133,118902,113651
6595,507,133,118913,113656
6597,506,133,118920,113661
6600,505,133,118920,113660
6602,504,133,118941,113668
6604,504,133,118940,113668
6607,503,133,118952,113676
6609,504,133,118952,113674
6612,505,133,118956,113678
6615,506,133,118966,113678
6618,508,133,118985,113681
6620,508,133,118996,113683
6623,508,133,118995,113697
6625,507,133,119010,113696
6627,507,134,119018,113696
6630,508,133,119019,113703
6632,508,133,119019,113705
6635,508,133,119039,113715
6637,508,133,119058,113715
6640,508,133,119069,113718
6642,509,134,119079,113724
6644,508,134,119079,113733
6647,508,133,119107,113737
6649,508,134,119121,113737
6652,508,133,119137,113750
6654,509,134,119137,113755
6658,510,134,119145,113753
6660,511,133,119167,113753
6663,510,134,119183,113767
6665,510,134,119183,113771
6667,509,134,119193,113777
6670,509,134,119207,113777
6672,510,134,119221,113782
6675,510,134,119231,113792
6677,510,134,119231,113793
6680,511,134,119244,113795
6682,511,134,119253,113795
6684,511,134,119265,113796
6687,513,134,119262,113803
6689,513,134,119270,113803
6692,514,134,119270,113801
6694,514,134,119276,113807
6697,514,134,119285,113807
6700,515,134,119285,113805
6703,515,134,119288,113804
6705,515,134,119298,113804
6707,516,134,119304,113811
6710,517,134,119302,113807
6712,517,134,119305,113807
6715,519,134,119305,113808
6717,520,134,119303,113808
6720,520,134,119303,113808
6722,520,134,119303,113812
6724,520,134,119316,113808
6727,520,134,119304,113808
6729,520,134,119303,113814
6732,519,134,119303,113808
6734,517,134,119299,113809
6737,516,134,119303,113809
6739,514,134,119296,113802
6743,513,134,119296,113798
6745,513,134,119287,113798
6747,512,134,119286,113801
6750,510,134,119286,113799
6752,509,134,119285,113809
6755,508,135,119288,113809
6757,508,134,119293,113800
6760,506,135,119293,113802
6762,505,134,119289,113802
6764,504,134,119281,113802
6767,502,134,119293,113804
6769,502,135,119285,113810
6772,501,135,119285,113808
6774,501,135,119294,113800
6777,502,135,119291,113800
6779,502,134,119295,113811
6782,502,135,119295,113810
6785,501,135,119299,113809
6787,502,135,119298,113809
6790,501,135,119300,113812
6792,501,135,119297,113814
6795,500,135,119298,113813
6797,501,135,119316,113814
6800,502,135,119322,113815
6802,502,135,119321,113826
6804,502,135,119321,113820
6807,500,135,119337,113824
6809,499,135,119333,113824
6812,495,135,119331,113828
6814,489,135,119350,113831
6817,482,135,119358,113833
6819,463,135,119373,113838
6822,453,135,119388,113841
6824,447,135,119399,113850
6827,443,135,119399,113858
6830,441,135,119409,113858
6832,447,135,119413,113863
6835,458,135,119436,113875
6837,476,135,119433,113871
6840,498,135,119446,113875
6842,576,135,119453,113881
6844,624,135,119460,113881
6847,671,135,119472,113881
6849,708,135,119483,113878
6852,770,135,119500,113892
6854,782,135,119516,113898
6857,778,135,119516,113904
6859,765,136,119529,113909
6862,742,135,119555,113919
6864,688,136,119570,113923
6866,655,136,119571,113924
6870,623,135,119578,113930
6872,583,136,119580,113936
6875,544,135,119600,113929
6877,483,136,119604,113945
6880,462,135,119626,113950
6882,443,136,119640,113954
6884,427,135,119653,113959
6887,407,135,119662,113962
6889,402,136,119671,113972
6892,402,136,119686,113967
6894,405,136,119694,113974
6897,415,135,119707,113974
6899,435,136,119719,113988
6902,446,135,119728,114003
6904,455,135,119744,114000
6906,462,136,119754,114001
6909,468,135,119777,114018
6912,473,136,119790,114015
6915,477,135,119790,114025
6917,481,136,119812,114028
6920,482,136,119824,114041
6922,483,135,119835,114041
6924,484,135,119851,114043
6927,486,135,119855,114054
6929,487,136,119870,114064
6932,488,136,119882,114063
6934,490,136,119895,114061
6937,491,136,119908,114069
6939,493,136,119917,114066
6942,494,136,119928,114075
6944,496,136,119934,114080
6946,496,136,119949,114084
6949,497,136,119948,114090
6951,498,136,119955,114092
6955,499,136,119972,114090
6957,500,136,119980,114095
6960,502,136,119985,114101
6962,502,136,119996,114099
6964,501,136,120007,114113
6967,501,136,120017,114117
6969,501,136,120030,114126
6972,501,136,120046,114121
6974,502,136,120044,114120
6977,504,136,120052,114130
6979,506,136,120067,114130
6982,506,136,120084,114132
6984,505,136,120093,114152
6986,505,136,120101,114162
6989,505,136,120106,114154
6991,504,136,120118,114160
6994,504,136,120134,114168
6996,505,136,120147,114170
7000,507,136,120155,114179
7002,507,136,120178,114183
7004,508,136,120177,114165
7007,509,136,120186,114189
7009,509,136,120203,114193
7012,509,136,120203,114198
7014,510,136,120201,114192
7017,510,136,120201,114195
7019,512,136,120201,114189
7022,513,136,120199,114179
7024,514,136,120182,114173
7026,515,136,120158,114160
7029,516,136,120129,114146
7031,516,136,120096,114120
7034,516,136,120096,114113
7036,516,136,120002,114085
7040,516,136,119951,114085
7042,514,136,119902,114043
7044,514,136,119837,114015
7047,514,136,119778,113994
7049,515,137,119727,113961
7052,515,137,119662,113937
7054,516,136,119593,113906
7057,517,137,119527,113883
7059,518,137,119464,113860
7062,518,137,119464,113837
7064,516,136,119331,113817
7066,514,137,119271,113792
7069,513,137,119218,113765
7071,512,137,119157,113739
7074,512,137,119096,113716
7076,512,137,119041,113692
7079,512,137,119041,113671
7081,513,137,118938,113651
7084,513,137,118887,113651
7087,513,137,118850,113621
7089,513,137,118850,113603
7092,512,137,118801,113585
7094,513,137,118723,113585
7097,513,137,118704,113572
7099,514,137,118662,113551
7102,515,137,118637,113553
7104,516,137,118618,113532
7106,517,137,118618,113526
7109,517,137,118572,113514
7111,517,137,118553,113510
7114,516,137,118553,113498
7116,516,137,118517,113498
7119,516,137,118520,113495
7121,515,137,118502,113480
7123,515,137,118502,113484
7127,514,137,118487,113479
7129,513,137,118488,113479
7132,512,137,118477,113481
7134,511,137,118477,113485
7137,510,137,118483,113475
7139,510,137,118471,113475
7142,509,138,118477,113471
7144,508,137,118480,113481
7146,507,137,118480,113484
7149,506,137,118488,113487
7151,506,138,118492,113487
7154,505,137,118496,113494
7156,505,137,118496,113496
7159,505,137,118505,113495
7161,505,137,118517,113495
7163,505,137,118531,113495
7166,504,137,118529,113499
7169,504,138,118544,113499
7172,502,138,118544,113509
7174,501,138,118545,113512
7177,501,137,118561,113512
7179,502,138,118561,113512
7182,502,138,118574,113517
7184,502,138,118591,113517
7186,502,138,118603,113529
7189,502,138,118615,113536
7191,503,138,118626,113536
7194,503,138,118626,113533
7196,504,138,118632,113547
7199,504,138,118647,113547
7201,505,138,118647,113548
7203,505,138,118656,113556
7206,506,138,118669,113556
7208,506,138,118680,113554
7212,506,138,118680,113561
7214,506,138,118701,113561
7217,506,138,118701,113568
7219,506,138,118708,113575
7222,507,138,118727,113575
7224,507,138,118727,113579
7226,506,138,118736,113586
7229,506,138,118751,113588
7231,507,138,118751,113591
7234,508,138,118764,113594
7236,508,138,118773,113604
7239,508,138,118782,113604
7241,507,138,118821,113610
7243,507,138,118821,113615
7246,508,138,118831,113615
7248,508,138,118842,113634
7251,508,138,118842,113627
7254,508,138,118857,113627
7257,508,138,118878,113641
7259,507,138,118900,113643
7262,507,138,118900,113649
7264,507,138,118910,113656
7266,508,138,118919,113656
7269,508,138,118942,113668
7271,508,138,118942,113675
7274,509,138,118960,113667
7276,508,138,118976,113675
7279,508,138,118976,113683
7281,507,138,118996,113686
7283,508,138,118996,113699
7286,508,138,119010,113701
7288,509,138,119012,113701
7291,508,138,119023,113705
7293,508,138,119031,113695
7297,508,138,119040,113706
7299,508,139,119050,113706
7302,508,138,119061,113710
7304,509,138,119062,113715
7306,510,138,119062,113723
7309,511,138,119072,113723
7311,512,139,119074,113716
7314,512,138,119079,113718
7316,512,138,119082,113715
7319,511,138,119090,113723
7321,511,139,119100,113723
7323,510,139,119096,113722
7326,511,138,119097,113729
7328,512,139,119092,113727
7331,513,139,119104,113721
7333,516,139,119099,113731
7336,517,139,119098,113723
7339,518,139,119103,113724
7342,517,139,119107,113721
7344,518,139,119107,113722
7346,517,139,119103,113721
7349,517,139,119107,113729
7351,516,139,119102,113722
7354,515,139,119099,113723
7356,512,139,119089,113721
7359,511,139,119091,113728
7361,510,139,119102,113725
7363,509,139,119102,113725
7366,507,139,119111,113732
7368,505,139,119106,113726
7371,503,139,119107,113731
7373,502,139,119096,113729
7376,500,139,119105,113729
7378,499,139,119098,113730
7382,499,139,119104,113734
7384,499,139,119111,113739
7386,499,139,119114,113735
7389,498,139,119121,113745
7391,497,139,119126,113742
7394,497,139,119119,113742
7396,497,139,119124,113748
7399,497,139,119135,113742
7401,498,139,119129,113746
7403,497,139,119141,113747
7406,497,139,119152,113747
7408,496,139,119157,113761
7411,496,139,119171,113767
7413,495,139,119181,113766
7416,495,139,119176,113767
7418,495,139,119180,113775
7421,496,139,119199,113766
7424,495,139,119197,113781
7426,493,139,119201,113785
7429,489,139,119227,113788
7431,483,139,119235,113783
7434,469,139,119236,113794
7436,460,139,119252,113807
7439,450,139,119251,113809
7441,440,139,119266,113812
7443,437,139,119282,113818
7446,437,139,119287,113818
7448,440,139,119304,113834
7451,460,139,119321,113835
7453,482,139,119328,113845
7456,509,139,119342,113844
7458,550,139,119361,113857
7461,604,139,119364,113857
7463,684,140,119370,113862
7465,724,140,119389,113868
7469,748,140,119408,113873
7471,762,140,119420,113892
7474,757,140,119419,113894
7476,724,140,119440,113897
7479,707,140,119452,113899
7481,665,140,119466,113900
7483,634,140,119480,113906
7486,606,140,119500,113920
7488,563,140,119505,113926
7491,502,140,119514,113930
7493,474,140,119537,113933
7496,455,140,119546,113935
7498,433,140,119554,113948
7501,421,140,119569,113950
7503,400,140,119592,113956
7505,395,140,119610,113966
7508,393,140,119620,113971
7511,396,140,119634,113968
7514,409,140,119642,113981
7516,421,140,119657,113988
7519,430,140,119657,113995
7521,442,140,119672,113999
7523,450,140,119687,113999
7526,463,140,119709,114011
7528,467,140,119716,114014
7531,468,140,119734,114017
7533,471,140,119742,114023
7536,472,140,119752,114025
7538,474,140,119769,114035
7541,475,140,119769,114040
7543,476,140,119787,114043
7545,477,140,119807,114043
7548,479,140,119826,114060
7550,480,140,119829,114058
7554,481,140,119829,114051
7556,482,140,119855,114064
7559,483,140,119862,114064
7561,484,140,119881,114084
7563,485,140,119881,114075
7566,486,140,119905,114085
7568,487,140,119921,114085
7571,487,140,119940,114110
7573,488,140,119948,114111
7576,488,140,119948,114121
7578,490,140,119969,114122
7581,491,140,119986,114122
7583,491,140,119997,114121
7585,491,140,119997,114134
7588,489,140,120022,114138
7590,489,140,120033,114138
7593,489,140,120053,114150
7596,489,140,120062,114154
7599,490,140,120072,114163
7601,491,140,120072,114170
7603,492,140,120092,114177
7606,493,140,120121,114182
7608,493,141,120131,114182
7611,494,140,120147,114194
7613,494,141,120147,114206
7616,495,141,120168,114210
7618,495,141,120189,114210
7621,496,141,120205,114215
7623,497,141,120223,114219
7625,497,141,120223,114231
7628,499,141,120246,114236
7630,499,141,120246,114229
7633,500,141,120248,114243
7635,500,141,120255,114243
7639,501,141,120253,114242
7641,503,141,120253,114228
7643,504,141,120243,114219
7646,505,141,120209,114204
7648,505,141,120161,114204
7651,506,141,120161,114170
7653,506,141,120074,114170
7656,506,141,120028,114153
7658,506,141,120028,114099
7661,506,141,119973,114082
7663,507,141,119846,114082
7665,507,141,119794,114052
7668,505,141,119729,113996
7670,503,141,119664,113996
7673,502,141,119664,113954
7675,503,141,119593,113928
7678,503,141,119475,113928
7681,504,141,119475,113874
7683,505,141,119417,113852
7686,505,141,119281,113852
7688,505,141,119232,113823
7691,505,141,119165,113774
7693,506,141,119111,113774
7696,507,141,119111,113739
7698,508,141,119067,113721
7701,509,141,118960,113721
7703,509,141,118960,113683
7705,509,141,118922,113663
7708,509,141,118841,113663
7710,508,141,118802,113649
7713,508,141,118802,113622
7715,509,141,118766,113620
7718,510,141,118733,113620
7720,511,142,118693,113608
7723,511,141,118693,113585
7726,511,141,118645,113585
7728,510,141,118623,113583
7731,509,142,118623,113572
7733,509,141,118614,113562
7736,510,142,118589,113562
7738,510,142,118573,113565
7741,510,142,118573,113561
7743,509,141,118574,113551
7745,509,142,118562,113551
7748,508,141,118567,113550
7750,507,142,118559,113557
7753,507,142,118559,113556
7755,507,142,118569,113548
7758,507,142,118563,113548
7760,506,142,118569,113553
7762,506,142,118569,113566
7766,505,142,118572,113562
7768,505,142,118579,113562
7771,504,142,118583,113564
7773,503,142,118580,113564
7776,503,142,118593,113563
7778,502,142,118607,113573
7781,502,142,118625,113575
7783,501,142,118624,113579
7785,502,142,118624,113585
7788,502,142,118630,113587
7790,502,142,118643,113587
7793,503,142,118661,113595
7795,503,142,118662,113596
7798,503,142,118665,113606
7800,503,142,118676,113601
7802,503,142,118688,113616
7805,502,142,118701,113615
7808,501,142,118705,113621
7811,502,142,118713,113618
7813,503,142,118723,113616
7816,504,142,118737,113617
7818,505,142,118747,113621
7821,505,142,118756,113629
7823,504,142,118755,113629
7825,504,142,118773,113635
7828,503,142,118777,113640
7830,503,142,118786,113648
7833,503,142,118795,113644
7835,504,142,118801,113648
7838,505,142,118814,113655
7840,507,142,118826,113656
7842,507,142,118832,113660
7845,507,142,118852,113659
7847,507,142,118865,113670
7851,509,142,118880,113684
7853,510,142,118898,113687
7856,511,142,118901,113698
7858,512,142,118912,113694
7861,512,142,118921,113702
7863,514,142,118931,113710
7865,515,142,118945,113718
7868,515,142,118962,113721
7870,514,142,118978,113728
7873,514,142,118999,113734
7875,513,142,119005,113737
7878,512,142,119017,113741
7880,512,142,119020,113743
7882,511,142,119039,113750
7885,511,143,119037,113752
7887,510,143,119057,113752
7890,511,142,119070,113758
7892,510,142,119081,113762
7896,511,143,119093,113771
7898,511,142,119103,113772
7901,511,142,119109,113784
7903,511,142,119113,113778
7905,510,143,119121,113781
7908,509,142,119122,113785
7910,508,143,119131,113782
7913,508,143,119149,113789
7915,508,142,119150,113789
7918,509,143,119151,113798
7920,511,143,119166,113795
7922,511,142,119170,113807
7925,512,143,119169,113803
7927,512,143,119189,113801
7930,513,143,119180,113808
7932,514,143,119183,113813
7936,514,143,119193,113808
7938,514,143,119196,113808
7941,513,143,119191,113809
7943,513,143,119199,113810
7945,513,143,119196,113811
7948,514,143,119197,113810
7950,515,143,119192,113794
7953,517,143,119201,113814
7955,518,143,119199,113818
7958,518,143,119200,113818
7960,519,143,119200,113814
7962,519,143,119204,113812
7965,519,143,119201,113818
7967,520,143,119205,113819
7970,520,143,119198,113823
7972,519,143,119211,113814
7975,518,143,119206,113821
7977,516,143,119205,113816
7981,514,143,119201,113825
7983,511,143,119206,113825
7985,511,143,119209,113824
7988,510,143,119212,113822
7990,510,143,119216,113823
7993,509,143,119213,113822
7995,506,143,119219,113827
7998,505,143,119221,113822
8000,504,143,119224,113834
8002,503,143,119224,113828
8005,503,143,119229,113829
8007,502,143,119235,113835
8010,501,143,119249,113837
8012,501,143,119252,113846
8015,500,143,119254,113843
8017,501,143,119267,113851
8020,500,143,119267,113848
8023,500,143,119274,113851
8025,500,143,119286,113851
8028,500,143,119295,113860
8030,500,143,119297,113864
8033,500,143,119297,113865
8035,499,143,119314,113864
8038,499,143,119326,113864
8040,498,143,119340,113882
8042,498,143,119340,113881
8045,498,143,119345,113887
8047,498,143,119345,113892
8050,498,143,119367,113893
8052,493,143,119372,113901
8055,489,143,119372,113897
8057,480,143,119396,113907
8060,472,143,119404,113907
8062,454,143,119427,113926
8065,448,143,119434,113923
8068,441,143,119444,113925
8070,439,143,119444,113928
8073,443,143,119473,113943
8075,454,143,119471,113943
8078,469,143,119471,113945
8080,499,143,119504,113957
8082,530,143,119519,113957
8085,616,143,119530,113973
8087,652,143,119530,113971
8090,702,144,119558,113980
8092,732,144,119566,113980
8095,753,144,119589,113982
8097,755,144,119605,113992
8100,745,144,119609,114004
8102,707,144,119629,114010
8104,690,144,119638,114010
8108,636,144,119656,114025
8110,608,144,119656,114037
8113,566,144,119668,114041
8115,536,144,119692,114041
8118,503,144,119713,114050
8120,460,144,119713,114056
8122,439,144,119725,114062
8125,426,144,119752,114062
8127,413,144,119770,114064
8130,404,144,119784,114073
8132,397,144,119784,114088
8135,399,144,119807,114098
8137,404,144,119832,114098
8140,413,144,119848,114101
8142,432,144,119848,114105
8144,444,144,119863,114117
8147,451,144,119884,114117
8150,458,144,119909,114125
8153,463,144,119919,114131
8155,471,144,119919,114141
8158,474,144,119950,114146
8160,476,144,119956,114146
8162,478,144,119983,114152
8165,480,144,119995,114162
8167,481,144,120002,114162
8170,483,144,120002,114178
8172,483,144,120018,114180
8175,484,144,120043,114180
8177,484,144,120043,114187
8180,484,144,120062,114195
8182,485,144,120083,114195
8184,486,144,120101,114208
8187,488,144,120101,114220
8189,489,144,120120,114213
8193,489,144,120146,114213
8195,489,144,120154,114223
8198,488,144,120154,114233
8200,488,144,120178,114233
8202,487,144,120201,114243
8205,488,144,120201,114260
8207,489,144,120216,114265
8210,490,144,120244,114265
8212,490,144,120257,114273
8215,491,144,120257,114280
8217,492,144,120266,114288
8220,492,144,120273,114288
8222,493,144,120313,114296
8224,494,144,120324,114291
8227,496,144,120324,114306
8229,496,144,120342,114311
8232,496,144,120360,114311
8235,496,144,120373,114318
8238,496,144,120373,114328
8240,495,144,120395,114338
8242,495,144,120408,114338
8245,495,144,120431,114340
8247,496,144,120450,114349
8250,497,144,120450,114362
8252,498,144,120465,114362
8255,499,144,120486,114368
8257,499,144,120491,114378
8260,499,144,120491,114371
8262,500,144,120498,114371
8264,501,144,120504,114371
8267,502,144,120499,114381
8269,503,144,120492,114375
8272,503,144,120484,114364
8274,504,144,120456,114343
8278,504,144,120387,114333
8280,504,144,120332,114314
8282,504,144,120332,114272
8285,504,144,120291,114272
8287,505,144,120223,114240
8290,505,144,120165,114215
8292,506,144,120103,114181
8295,505,144,120025,114153
8297,505,144,119951,114136
8300,504,145,119886,114097
8302,504,144,119822,114071
8304,505,145,119737,114035
8307,505,145,119668,114017
8309,505,145,119610,113986
8312,505,144,119550,113962
8314,506,145,119487,113938
8317,506,145,119427,113915
8320,507,145,119366,113890
8322,506,145,119312,113872
8325,506,144,119260,113848
8327,505,145,119206,113832
8330,504,145,119154,113817
8332,503,145,119115,113798
8335,503,145,119068,113786
8337,503,145,119033,113759
8340,503,145,118992,113745
8342,504,145,118967,113729
8344,505,145,118935,113722
8347,506,145,118901,113713
8349,507,145,118876,113703
8352,508,145,118849,113691
8354,508,145,118834,113685
8357,509,145,118806,113681
8359,509,145,118795,113676
8361,508,145,118775,113665
8365,508,145,118769,113658
8367,507,145,118758,113662
8370,506,145,118762,113657
8372,505,145,118753,113658
8375,504,145,118740,113659
8377,504,145,118735,113655
8380,504,145,118732,113658
8382,503,145,118726,113650
8384,503,145,118732,113661
8387,502,145,118738,113650
8389,501,145,118752,113657
8392,500,145,118751,113657
8394,500,145,118753,113663
8397,499,145,118766,113668
8399,498,145,118769,113675
8401,498,145,118784,113679
8404,498,145,118787,113678
8407,498,145,118800,113687
8410,499,145,118813,113688
8412,499,145,118824,113700
8415,498,145,118851,113694
8417,498,145,118857,113707
8420,497,145,118870,113710
8422,497,145,118882,113721
8424,497,145,118888,113730
8427,497,145,118907,113727
8429,498,145,118916,113738
8432,499,145,118937,113743
8434,499,145,118947,113751
8437,499,145,118956,113752
8439,499,145,118975,113758
8441,499,145,118975,113764
8444,499,145,118989,113773
8446,500,145,119012,113779
8450,499,145,119022,113785
8452,500,145,119044,113789
8455,500,145,119054,113796
8457,500,145,119070,113803
8460,501,145,119094,113816
8462,502,145,119107,113818
8464,502,145,119122,113821
8467,503,145,119138,113827
8469,504,145,119148,113839
8472,504,145,119167,113841
8474,503,145,119188,113849
8477,503,145,119193,113853
8479,504,145,119213,113861
8481,504,145,119241,113873
8484,505,145,119260,113884
8486,505,145,119273,113892
8489,505,145,119296,113896
8492,505,146,119307,113902
8495,506,146,119332,113912
8497,507,146,119341,113906
8500,508,145,119365,113916
8502,507,145,119390,113927
8504,507,145,119395,113932
8507,506,146,119429,113947
8509,505,146,119437,113951
8512,505,146,119437,113958
8514,504,145,119473,113973
8517,505,146,119489,113973
8519,506,146,119517,113981
8521,506,146,119531,113985
8524,507,146,119542,113995
8526,507,146,119542,114003
8529,507,146,119581,114011
8531,506,146,119588,114015
8535,507,146,119588,114015
8537,508,146,119608,114021
8540,509,146,119615,114021
8542,510,146,119633,114034
8544,510,146,119637,114038
8547,510,146,119654,114036
8549,510,146,119654,114043
8552,510,146,119663,114045
8554,510,146,119664,114045
8557,510,146,119683,114053
8559,512,146,119679,114042
8561,513,146,119679,114055
8564,515,146,119695,114062
8566,516,146,119689,114062
8569,518,146,119695,114057
8571,518,146,119695,114050
8574,517,146,119697,114049
8577,517,146,119694,114049
8580,517,146,119699,114059
8582,514,146,119686,114047
8584,514,146,119686,114052
8587,512,146,119691,114056
8589,512,146,119687,114056
8592,511,146,119690,114053
8594,510,146,119690,114052
8597,510,146,119691,114048
8599,510,146,119680,114048
8601,510,146,119679,114046
8604,507,146,119677,114039
8606,506,146,119677,114042
8609,504,146,119673,114042
8611,503,146,119671,114042
8614,502,146,119676,114037
8616,501,146,119676,114036
8620,500,146,119666,114037
8622,501,146,119664,114037
8624,501,146,119669,114041
8627,501,146,119667,114032
8629,500,146,119673,114032
8632,501,146,119661,114044
8634,500,146,119661,114051
8637,500,146,119677,114044
8639,502,147,119674,114051
8641,503,146,119674,114057
8644,504,146,119686,114057
8646,504,146,119689,114046
8649,504,146,119696,114056
8651,504,146,119696,114066
8654,504,146,119713,114066
8656,504,146,119713,114063
8659,502,146,119718,114068
8662,500,147,119730,114068
8664,495,147,119744,114068
8667,479,147,119757,114077
8669,471,147,119757,114077
8672,456,147,119757,114091
8674,450,146,119766,114091
8677,447,147,119784,114091
8679,447,146,119784,114103
8681,453,147,119799,114104
8684,462,147,119817,114104
8686,476,146,119828,114119
8689,525,146,119828,114124
8691,553,147,119859,114124
8694,632,147,119859,114139
8696,683,147,119865,114141
8699,717,147,119885,114141
8701,754,147,119885,114152
8704,758,147,119901,114161
8707,750,147,119923,114161
8709,705,147,119923,114165
8712,673,147,119935,114180
8714,641,147,119952,114181
8717,620,147,119958,114181
8719,600,147,119992,114179
8721,552,147,119992,114198
8724,532,147,120012,114198
8726,504,147,120012,114200
8729,464,147,120029,114210
8731,446,147,120048,114222
8734,435,147,120053,114222
8736,426,147,120085,114231
8739,412,147,120085,114234
8741,409,147,120106,114234
8743,408,147,120106,114252
8747,413,147,120128,114257
8749,421,147,120141,114263
8752,434,147,120156,114264
8754,447,147,120168,114274
8757,456,147,120185,114274
8759,463,147,120193,114278
8761,471,147,120208,114292
8764,476,147,120223,114287
8766,484,147,120240,114301
8769,487,147,120262,114298
8771,489,147,120262,114310
8774,491,147,120285,114310
8776,494,147,120288,114320
8779,495,147,120310,114321
8781,496,147,120312,114334
8783,497,147,120322,114330
8786,498,147,120340,114332
8788,500,147,120345,114347
8792,500,147,120372,114341
8794,501,147,120375,114350
8797,502,147,120382,114356
8799,503,147,120390,114363
8801,503,147,120401,114368
8804,503,147,120418,114373
8806,504,147,120431,114375
8809,503,147,120439,114382
8811,504,147,120454,114377
8814,503,147,120467,114389
8816,502,147,120478,114394
8819,500,147,120493,114398
8821,498,147,120499,114400
8823,497,147,120512,114412
8826,497,147,120514,114415
8828,501,147,120526,114413
8832,504,147,120538,114423
8834,506,147,120559,114425
8837,509,147,120575,114431
8839,509,147,120589,114432
8841,506,147,120604,114441
8844,508,147,120615,114446
8846,508,147,120623,114455
8849,510,147,120632,114452
8851,511,147,120646,114463
8854,513,147,120655,114468
8856,517,148,120665,114472
8859,518,147,120681,114484
8861,519,147,120695,114479
8863,519,147,120704,114487
8866,517,148,120722,114491
8868,516,148,120732,114494
8871,519,147,120725,114496
8873,526,148,120730,114498
8877,529,148,120726,114491
8879,531,148,120715,114478
8881,533,147,120705,114472
8884,533,147,120671,114466
8886,533,148,120641,114454
8889,533,148,120606,114430
8891,536,148,120560,114409
8894,539,147,120506,114385
8896,540,148,120449,114354
8899,540,148,120376,114324
8901,539,148,120314,114302
8903,538,148,120251,114267
8906,538,148,120173,114250
8908,538,148,120105,114220
8911,537,148,120029,114190
8913,536,148,119960,114156
8916,536,148,119893,114137
8919,536,148,119822,114096
8921,536,148,119757,114072
8924,536,148,119689,114044
8926,536,148,119621,114022
8929,536,148,119559,113987
8931,536,148,119489,113967
8934,536,148,119431,113948
8936,537,148,119365,113920
8939,537,148,119311,113896
8941,536,148,119256,113876
8943,534,148,119197,113860
8946,534,148,119147,113843
8948,535,148,119097,113820
8951,536,148,119053,113802
8953,537,148,119012,113780
8956,537,148,118961,113762
8958,536,148,118925,113746
8961,535,148,118887,113730
8964,534,148,118848,113720
8966,533,148,118805,113705
8969,531,148,118777,113666
8971,531,148,118745,113665
8974,530,148,118714,113671
8976,529,148,118680,113659
8979,528,148,118651,113649
8981,525,148,118632,113635
8983,523,148,118604,113631
8986,521,148,118592,113616
8988,519,148,118576,113608
8991,516,148,118557,113599
8993,515,148,118543,113591
8996,514,148,118543,113582
8998,512,148,118500,113582
9000,511,148,118498,113582
9004,509,148,118492,113573
9006,509,148,118477,113565
9009,508,148,118482,113568
9011,507,148,118464,113564
9014,507,148,118461,113571
9016,503,148,118470,113560
9019,501,148,118470,113562
9021,500,148,118467,113570
9023,500,148,118466,113570
9026,501,148,118471,113575
9028,501,148,118471,113568
9031,501,148,118471,113575
9033,500,148,118485,113573
9036,500,148,118494,113573
9038,500,148,118497,113585
9040,500,149,118497,113595
9043,500,148,118515,113598
9046,500,149,118528,113598
9049,500,148,118548,113607
9051,501,148,118556,113614
9054,501,149,118556,113620
9056,502,148,118589,113624
9059,502,149,118603,113624
9061,502,148,118627,113652
9063,501,148,118627,113653
9066,502,149,118660,113665
9068,503,148,118675,113665
9071,502,149,118713,113672
9073,502,149,118723,113690
9076,502,149,118745,113702
9078,503,149,118745,113711
9080,504,149,118767,113722
9083,506,149,118815,113724
9085,506,149,118838,113724
9089,503,149,118871,113754
9091,502,149,118871,113766
9094,501,148,118903,113783
9096,500,149,118953,113783
9099,501,149,118981,113789
9101,504,149,118981,113804
9103,507,149,119013,113818
9106,508,149,119056,113832
9108,509,149,119056,113837
9111,509,149,119116,113856
9113,510,149,119152,113856
9116,512,149,119176,113867
9118,514,149,119176,113887
9120,514,149,119206,113894
9123,514,149,119254,113894
9125,515,149,119282,113906
9128,515,149,119309,113924
9131,516,149,119337,113924
9134,516,149,119354,113946
9136,516,149,119354,113956
9139,517,149,119389,113966
9141,517,149,119433,113979
9143,518,149,119433,113981
9146,518,149,119479,113981
9148,519,149,119476,113991
9151,520,149,119518,113996
9153,521,149,119518,114009
9156,522,149,119558,114027
9158,523,149,119582,114027
9160,523,149,119598,114040
9163,523,149,119598,114048
9165,523,149,119608,114051
9168,524,149,119636,114051
9170,524,149,119657,114060
9174,524,149,119657,114067
9176,525,149,119668,114067
9179,527,149,119668,114065
9181,526,149,119675,114072
9183,526,149,119680,114072
9186,526,149,119694,114078
9188,525,149,119681,114076
9191,523,149,119681,114070
9193,523,149,119688,114070
9196,522,149,119663,114070
9198,520,149,119668,114075
9200,519,149,119649,114067
9203,517,149,119649,114048
9205,516,149,119645,114046
9208,515,149,119624,114046
9210,514,149,119602,114040
9213,511,149,119602,114034
9216,509,149,119581,114019
9219,508,149,119572,114019
9221,505,149,119540,114012
9223,504,149,119518,114015
9226,500,149,119518,113994
9228,500,149,119509,113994
9231,499,149,119468,113996
9233,498,149,119462,113993
9236,498,149,119462,113976
9238,500,149,119450,113970
9240,501,150,119433,113970
9243,502,149,119424,113969
9245,503,149,119408,113962
9248,504,150,119396,113959
9250,507,150,119390,113952
9253,507,149,119382,113946
9255,506,149,119366,113949
9259,506,150,119366,113947
9261,504,150,119368,113947
9263,504,150,119355,113939
9266,504,149,119339,113942
9268,504,150,119354,113935
9271,503,150,119343,113934
9273,498,150,119352,113931
9276,493,150,119339,113929
9278,486,150,119339,113937
9280,477,150,119334,113929
9283,468,150,119350,113932
9285,457,150,119342,113933
9288,454,150,119342,113928
9290,452,150,119349,113933
9293,453,150,119355,113929
9295,469,150,119360,113938
9298,483,150,119367,113942
9300,508,150,119371,113940
9303,538,150,119363,113941
9306,588,150,119373,113941
9308,665,150,119378,113945
9311,705,150,119392,113956
9313,732,150,119398,113953
9316,753,151,119410,113958
9318,753,150,119419,113960
9320,736,151,119423,113969
9323,696,150,119437,113967
9325,677,151,119447,113966
9328,653,151,119436,113969
9330,630,151,119455,113978
9333,594,151,119470,113986
9335,533,151,119473,113988
9338,502,151,119484,114000
9340,478,151,119490,113997
9342,460,151,119504,113999
9346,432,151,119514,114005
9348,421,151,119535,114013
9351,414,151,119544,114014
9353,410,151,119554,114014
9356,409,151,119575,114029
9358,412,151,119581,114038
9360,419,151,119597,114039
9363,438,151,119614,114048
9365,446,151,119622,114058
9368,454,151,119641,114060
9370,464,151,119661,114064
9373,471,151,119674,114079
9375,476,151,119686,114079
9378,479,151,119701,114088
9380,481,151,119712,114099
9382,483,151,119728,114100
9385,485,151,119740,114109
9388,487,151,119755,114120
9391,490,151,119773,114124
9393,493,151,119782,114129
9396,494,151,119814,114133
9398,493,151,119824,114140
9400,492,151,119834,114153
9403,491,151,119847,114159
9405,490,151,119853,114156
9408,490,151,119874,114168
9410,491,151,119885,114180
9413,492,151,119901,114176
9415,493,151,119914,114190
9418,493,151,119937,114188
9420,492,151,119952,114207
9422,491,151,119967,114206
9425,491,151,119974,114214
9427,491,151,119986,114218
9431,492,151,120001,114223
9433,492,151,120009,114227
9436,493,151,120023,114228
9438,492,151,120048,114242
9440,492,151,120050,114244
9443,495,151,120067,114252
9445,496,151,120094,114255
9448,496,151,120096,114258
9450,497,151,120104,114265
9453,497,151,120126,114269
9455,498,151,120137,114278
9458,499,151,120148,114274
9460,500,151,120164,114286
9462,502,151,120177,114291
9465,506,151,120182,114298
9467,506,151,120197,114294
9470,506,151,120197,114296
9473,504,151,120212,114302
9476,503,151,120226,114302
9478,501,151,120233,114309
9480,500,151,120237,114299
9483,500,151,120235,114306
9485,502,151,120242,114306
9488,503,151,120239,114297
9490,504,151,120227,114291
9493,507,151,120212,114295
9495,509,151,120183,114268
9498,510,151,120183,114261
9500,511,151,120112,114240
9502,512,151,120075,114217
9505,512,151,120033,114196
9507,513,150,119969,114177
9510,514,151,119915,114153
9512,515,151,119870,114128
9516,515,150,119870,114101
9518,516,151,119748,114079
9520,517,151,119698,114079
9523,517,151,119637,114032
9525,517,151,119574,114006
9528,518,151,119532,113986
9530,518,151,119532,113963
9533,519,151,119406,113937
9535,520,150,119355,113909
9538,519,151,119355,113887
9540,520,151,119235,113868
9542,520,150,119178,113868
9545,520,150,119131,113825
9547,520,150,119131,113802
9550,520,151,119081,113780
9552,521,151,118984,113780
9555,521,151,118945,113765
9558,521,150,118897,113726
9560,521,151,118897,113706
9563,522,150,118812,113697
9565,522,150,118778,113697
9568,523,150,118748,113674
9570,523,151,118748,113658
9573,524,150,118724,113647
9575,524,150,118666,113647
9578,524,150,118647,113640
9580,522,150,118628,113616
9582,520,150,118628,113612
9585,518,151,118584,113603
9587,517,151,118567,113603
9590,516,150,118557,113606
9592,514,151,118557,113588
9595,514,150,118534,113581
9597,514,150,118519,113581
9600,514,150,118512,113578
9603,513,150,118505,113578
9605,512,150,118503,113578
9608,510,150,118495,113570
9610,507,150,118495,113579
9613,505,150,118501,113580
9615,505,150,118495,113580
9618,504,150,118494,113576
9620,503,150,118494,113578
9622,500,150,118503,113579
9625,499,150,118512,113579
9627,498,150,118522,113580
9630,497,151,118527,113587
9632,495,150,118527,113589
9635,495,150,118537,113593
9637,495,150,118550,113593
9639,496,150,118567,113599
9643,495,150,118567,113612
9645,493,150,118565,113613
9648,492,150,118583,113613
9650,490,150,118603,113619
9653,491,150,118603,113630
9655,493,150,118626,113630
9658,496,150,118630,113632
9660,495,150,118630,113642
9662,494,150,118644,113648
9665,494,150,118678,113648
9667,495,150,118688,113654
9670,498,150,118688,113675
9672,498,150,118709,113674
9675,498,150,118727,113674
9677,498,150,118747,113682
9679,498,150,118758,113695
9682,499,150,118758,113701
9684,500,150,118774,113707
9688,501,150,118805,113707
9690,501,150,118824,113719
9693,503,150,118824,113721
9695,503,150,118832,113730
9698,503,150,118845,113730
9700,504,150,118888,113740
9702,504,150,118891,113744
9705,505,150,118891,113757
9707,506,150,118915,113763
9710,507,150,118938,113763
9712,508,150,118955,113765
9715,510,150,118955,113776
9717,513,151,118974,113787
9719,515,150,118990,113787
9722,516,150,118996,113803
9724,516,150,119010,113807
9728,515,150,119031,113805
9730,513,150,119056,113810
9733,512,151,119073,113818
9735,510,150,119084,113834
9738,510,150,119084,113830
9740,509,150,119105,113843
9742,509,151,119109,113843
9745,509,150,119125,113839
9747,510,151,119134,113841
9750,510,151,119137,113842
9752,512,151,119153,113854
9755,512,151,119178,113861
9757,512,151,119190,113870
9759,512,151,119190,113869
9762,512,151,119200,113869
9764,512,151,119207,113876
9767,513,151,119223,113885
9769,515,151,119240,113881
9773,516,151,119239,113883
9775,517,151,119250,113892
9778,518,151,119253,113887
9780,519,151,119268,113892
9782,519,151,119267,113890
9785,518,151,119275,113897
9787,518,151,119290,113903
9790,518,151,119295,113900
9792,518,151,119293,113899
9795,517,151,119305,113897
9797,516,151,119302,113902
9799,514,151,119306,113898
9802,513,151,119298,113901
9804,511,151,119305,113904
9807,510,151,119306,113901
9809,508,151,119320,113900
9812,507,151,119310,113903
9815,506,151,119309,113895
9818,504,151,119307,113906
9820,501,151,119309,113901
9822,500,151,119305,113898
9825,499,151,119300,113902
9827,499,151,119295,113898
9830,498,151,119297,113893
9832,497,151,119276,113882
9835,497,151,119284,113886
9837,497,151,119279,113884
9839,498,151,119274,113888
9842,500,151,119266,113884
9844,499,151,119257,113881
9847,498,151,119255,113878
9849,495,151,119257,113877
9852,493,151,119247,113878
9854,491,151,119251,113875
9858,490,151,119233,113863
9860,490,151,119234,113871
9862,490,151,119232,113863
9865,491,151,119230,113864
9867,492,151,119235,113865
9870,494,151,119228,113863
9872,490,151,119227,113869
9875,484,151,119228,113866
9877,475,151,119224,113869
9879,465,151,119231,113867
9882,448,151,119221,113870
9884,443,151,119232,113873
9887,439,151,119243,113871
9889,434,151,119234,113867
9892,430,151,119235,113874
9894,434,151,119242,113888
9897,445,151,119255,113883
9900,464,151,119264,113888
9902,492,151,119279,113890
9905,539,151,119268,113892
9907,611,151,119286,113902
9910,649,151,119284,113907
9912,697,151,119295,113908
9915,736,151,119304,113905
9917,746,152,119323,113916
9919,742,152,119326,113915
9922,713,151,119334,113926
9924,692,151,119353,113929
9927,672,152,119365,113939
9929,647,152,119380,113942
9932,614,152,119394,113946
9934,557,152,119403,113950
9937,524,152,119412,113958
9939,500,152,119428,113967
9942,472,152,119443,113969
9945,442,152,119463,113977
9947,429,151,119481,113982
9950,423,152,119490,113992
9952,417,152,119502,113980
9955,418,152,119509,114004
9957,420,152,119535,114005
9959,427,152,119549,114011
9962,432,152,119574,114027
9964,441,152,119588,114032
9967,456,151,119600,114039
9969,463,152,119624,114045
9972,469,152,119624,114053
9974,476,152,119652,114063
9977,479,151,119670,114063
9979,483,152,119689,114077
9981,485,152,119704,114078
9985,485,152,119726,114088
9987,487,152,119739,114092
9990,488,152,119747,114095
9992,491,152,119769,114107
9995,492,152,119769,114116
9997,493,152,119808,114122
9999,494,152,119818,114122
10002,495,152,119843,114137
10004,495,152,119850,114136
10007,496,152,119865,114148
10009,497,152,119865,114152
10012,497,152,119899,114158
10014,498,152,119913,114162
10017,498,152,119913,114169
10019,498,152,119942,114176
10021,498,152,119957,114176
10024,498,152,119985,114200
10027,499,152,119985,114198
10030,499,152,119990,114211
10032,500,152,120024,114211
10035,500,152,120043,114211
10037,502,152,120051,114232
10039,502,152,120051,114232
10042,502,152,120079,114242
10044,502,152,120095,114242
10047,503,152,120118,114254
10049,504,152,120118,114252
10052,504,152,120127,114259
10054,503,152,120146,114259
10057,501,152,120167,114273
10059,499,152,120187,114274
10061,498,152,120187,114289
10064,498,152,120209,114288
10066,498,152,120226,114288
10070,499,152,120239,114292
10072,499,152,120245,114302
10075,499,152,120257,114309
10077,500,152,120257,114312
10079,501,152,120256,114311
10082,502,152,120252,114307
10084,502,152,120248,114307
10087,504,152,120245,114288
10089,504,152,120245,114288
10092,504,152,120200,114288
10094,504,152,120200,114255
10097,504,152,120174,114233
10099,506,152,120066,114233
10101,507,152,120018,114206
10104,508,152,119958,114159
10106,508,152,119896,114159
10109,508,152,119896,114106
10112,507,152,119830,114082
10115,507,152,119711,114082
10117,508,152,119711,114031
10119,508,152,119668,114016
10122,508,152,119541,114016
10124,508,153,119464,113984
10127,510,152,119421,113939
10129,510,153,119371,113939
10132,511,153,119371,113884
10134,511,152,119304,113858
10137,510,152,119173,113858
10139,509,153,119173,113806
10141,509,152,119124,113791
10144,510,153,119002,113791
10146,510,153,118958,113765
10149,511,153,118958,113726
10151,510,153,118851,113726
10155,510,153,118851,113686
10157,510,153,118784,113676
10159,511,153,118727,113676
10162,511,153,118727,113643
10164,512,153,118696,113628
10167,512,153,118625,113628
10169,512,153,118599,113619
10172,512,153,118599,113597
10174,511,153,118548,113597
10177,512,153,118548,113572
10179,511,153,118525,113566
10181,511,153,118510,113566
10184,512,153,118486,113561
10186,512,153,118468,113560
10189,513,153,118468,113552
10191,512,153,118461,113540
10194,511,153,118441,113540
10196,510,153,118432,113544
10199,509,153,118432,113536
10202,506,153,118433,113530
10204,505,153,118421,113530
10207,502,153,118418,113533
10209,499,153,118420,113533
10212,498,153,118418,113530
10214,495,153,118426,113536
10217,495,153,118432,113538
10219,495,153,118432,113536
10221,495,153,118432,113540
10224,494,153,118436,113542
10226,494,153,118439,113542
10229,495,153,118453,113545
10231,495,153,118455,113545
10234,496,153,118465,113553
10236,496,153,118472,113555
10238,495,153,118480,113561
10242,494,153,118492,113568
10244,493,153,118501,113565
10247,492,153,118531,113575
10249,493,153,118531,113585
10252,493,153,118540,113585
10254,496,153,118553,113590
10257,496,153,118566,113591
10259,495,153,118576,113600
10261,494,153,118585,113600
10264,493,153,118603,113608
10266,492,153,118610,113617
10269,491,153,118619,113617
10271,491,153,118639,113627
10274,490,153,118649,113625
10276,491,153,118654,113632
10278,492,153,118683,113639
10281,492,153,118679,113649
10284,493,154,118706,113654
10287,493,153,118723,113659
10289,494,153,118739,113665
10292,493,154,118757,113666
10294,491,153,118772,113676
10297,489,154,118780,113681
10299,486,153,118795,113696
10301,484,154,118822,113696
10304,482,154,118834,113705
10306,483,154,118846,113718
10309,484,154,118870,113727
10311,485,154,118893,113738
10314,486,154,118922,113746
10316,486,154,118938,113753
10318,487,154,118961,113763
10321,488,154,118990,113768
10323,489,154,119009,113786
10327,489,154,119041,113793
10329,488,154,119070,113800
10332,487,154,119086,113815
10334,487,154,119109,113826
10337,486,154,119134,113838
10339,487,154,119156,113846
10341,488,154,119182,113861
10344,488,154,119220,113866
10346,489,154,119255,113884
10349,490,154,119277,113897
10351,491,154,119299,113907
10354,491,154,119331,113921
10356,491,154,119361,113935
10358,491,154,119383,113947
10361,491,154,119412,113950
10363,492,154,119428,113957
10366,494,154,119448,113982
10369,496,154,119484,113994
10372,498,154,119518,113991
10374,500,154,119540,114005
10377,501,154,119557,114001
10379,501,154,119571,114019
10381,500,154,119593,114047
10384,499,154,119619,114042
10386,497,154,119641,114047
10389,495,154,119646,114058
10391,493,154,119667,114065
10394,493,154,119683,114070
10396,493,154,119698,114077
10398,493,154,119707,114080
10401,494,154,119712,114094
10403,494,154,119733,114096
10406,492,154,119737,114093
10408,490,154,119747,114077
10412,489,154,119753,114102
10414,488,154,119760,114109
10417,488,154,119767,114107
10419,488,154,119771,114112
10421,488,154,119773,114112
10424,488,154,119781,114111
10426,487,154,119775,114112
10429,486,154,119783,114119
10431,485,154,119783,114110
10434,486,154,119785,114109
10436,486,154,119794,114116
10438,487,154,119783,114097
10441,489,154,119782,114111
10443,489,154,119780,114109
10446,489,154,119785,114108
10448,489,154,119779,114111
10451,490,154,119781,114099
10454,489,154,119788,114116
10457,490,154,119784,114116
10459,490,154,119791,114111
10461,491,154,119787,114112
10464,491,154,119793,114113
10466,489,154,119792,114108
10469,485,154,119792,114114
10471,477,154,119798,114119
10474,470,154,119805,114119
10476,455,154,119818,114132
10478,451,154,119820,114129
10481,446,154,119829,114130
10483,445,154,119829,114136
10486,448,154,119831,114137
10488,459,154,119838,114137
10491,470,154,119838,114138
10493,496,154,119855,114144
10497,523,154,119862,114144
10499,602,154,119880,114151
