TimeStamp,ECG Data,GSR Data,PPG_Red Data,PPG_IR Data
11295,516,143,119045,114821
11297,516,143,118988,114800
11299,516,143,118927,114777
11302,516,143,118880,114753
11304,515,143,118832,114735
6,517,140,0,0
8,519,140,57570,57542
11,519,140,73937,73960
13,517,140,90349,90330
15,516,141,106717,106700
18,514,141,119157,114743
20,514,141,119075,114702
23,513,141,118968,114682
25,513,141,118968,114634
28,512,141,118915,114634
30,512,142,118856,114615
33,511,142,118826,114603
35,511,142,118778,114589
37,510,142,118742,114566
40,510,142,118709,114554
43,510,142,118674,114538
46,509,142,118645,114527
48,507,143,118620,114512
51,506,143,118595,114512
53,503,143,118588,114505
55,503,143,118569,114505
58,502,143,118554,114493
60,502,143,118549,114493
63,501,143,118532,114492
65,501,143,118539,114488
68,501,143,118525,114485
70,501,144,118524,114481
73,500,144,118531,114487
75,499,144,118538,114485
77,498,144,118545,114485
80,497,144,118554,114492
82,498,144,118567,114502
86,498,144,118573,114511
88,498,144,118580,114504
91,498,144,118605,114514
93,498,144,118605,114523
95,497,144,118629,114533
98,496,145,118657,114538
100,495,145,118671,114546
103,495,145,118697,114553
105,496,145,118719,114564
108,496,145,118734,114576
110,497,145,118754,114587
113,496,145,118781,114595
115,497,145,118791,114603
117,498,145,118814,114615
120,499,145,118843,114614
122,501,145,118872,114628
125,502,145,118884,114638
128,502,145,118908,114641
131,501,145,118937,114655
133,499,145,118954,114665
135,499,145,118979,114675
138,499,145,119002,114682
140,500,145,119025,114691
143,501,145,119044,114705
145,501,146,119059,114718
148,501,146,119085,114715
150,501,146,119115,114727
153,502,146,119134,114734
155,502,146,119150,114738
157,503,146,119174,114759
160,503,146,119197,114766
162,504,146,119220,114777
165,504,146,119236,114782
167,505,146,119254,114791
171,505,146,119277,114795
173,506,146,119300,114808
175,507,146,119320,114812
178,506,146,119338,114826
180,507,146,119365,114835
183,507,146,119388,114842
185,507,146,119414,114851
188,508,146,119430,114863
190,508,146,119462,114873
193,508,146,119482,114880
195,508,146,119499,114887
197,508,146,119519,114894
200,507,146,119547,114903
202,507,146,119567,114909
205,507,146,119584,114922
207,507,146,119613,114927
210,507,146,119627,114935
212,508,146,119646,114946
215,508,146,119673,114951
218,509,146,119677,114959
220,510,146,119690,114955
223,510,146,119708,114957
225,510,147,119718,114956
228,509,147,119725,114962
230,508,146,119744,114978
233,508,146,119744,114972
235,508,147,119762,114980
237,508,147,119767,114980
240,508,147,119770,114978
242,508,146,119772,114978
245,507,147,119772,114979
247,507,147,119779,114977
250,507,146,119775,114977
252,508,147,119777,114982
254,508,147,119766,114972
258,506,147,119763,114966
260,505,147,119763,114959
263,504,147,119736,114958
265,505,147,119735,114948
268,505,147,119735,114951
270,505,147,119714,114935
273,505,147,119711,114935
275,505,147,119701,114934
277,506,147,119692,114925
280,506,147,119684,114925
282,506,147,119684,114923
285,506,147,119659,114915
287,505,147,119648,114903
290,505,147,119648,114904
292,504,147,119638,114901
294,505,147,119629,114901
297,505,147,119625,114899
300,504,147,119625,114895
303,504,147,119605,114891
305,505,147,119606,114891
308,505,147,119607,114893
310,507,147,119598,114885
313,507,147,119594,114892
315,507,147,119588,114889
317,506,147,119586,114889
320,506,147,119587,114879
322,507,147,119587,114886
325,507,147,119599,114889
327,508,147,119584,114889
330,507,147,119595,114884
332,507,147,119595,114880
334,506,147,119591,114887
337,506,147,119600,114887
339,506,147,119608,114889
343,506,147,119616,114894
345,505,147,119616,114897
348,505,147,119624,114900
350,505,147,119641,114900
353,505,147,119654,114913
355,505,147,119654,114913
357,506,147,119667,114920
360,506,147,119689,114920
362,507,147,119700,114924
365,507,147,119710,114940
367,509,147,119710,114942
370,508,147,119736,114950
372,507,147,119751,114950
374,506,147,119777,114955
377,505,147,119785,114963
379,505,147,119797,114963
382,506,147,119797,114979
385,507,147,119813,114984
388,508,147,119850,114984
390,509,147,119850,115000
393,509,147,119871,115012
395,509,147,119901,115012
397,510,147,119928,115018
400,510,147,119928,115033
402,511,147,119951,115040
405,511,147,119983,115040
407,511,147,120016,115052
410,511,147,120016,115070
412,511,147,120057,115070
414,511,147,120076,115080
417,512,147,120076,115102
419,514,147,120106,115111
422,515,147,120151,115111
424,516,147,120172,115122
428,518,147,120172,115143
430,519,147,120206,115148
433,519,147,120221,115148
435,519,147,120279,115162
437,518,147,120305,115179
440,518,147,120305,115195
442,516,147,120330,115207
445,515,147,120370,115207
447,513,147,120390,115212
450,512,147,120390,115231
452,510,147,120419,115243
454,510,147,120446,115243
457,509,147,120494,115252
459,509,147,120516,115263
462,509,147,120516,115286
464,509,147,120545,115286
467,509,147,120581,115286
470,508,147,120600,115297
473,507,147,120600,115314
475,504,147,120633,115318
477,504,147,120640,115318
480,503,147,120659,115323
482,503,147,120680,115332
485,503,147,120704,115339
487,502,147,120721,115353
490,501,147,120751,115353
492,500,147,120762,115360
494,499,147,120762,115368
497,498,147,120781,115368
499,497,147,120784,115372
502,497,147,120818,115380
504,499,147,120836,115389
507,500,147,120853,115395
509,500,147,120856,115401
513,500,147,120870,115399
515,500,147,120890,115409
517,499,147,120895,115416
520,498,147,120910,115427
522,497,147,120942,115431
525,493,147,120958,115441
527,479,147,120987,115452
530,470,147,120996,115458
532,460,147,121001,115464
534,452,147,121024,115475
537,444,147,121050,115473
539,439,147,121059,115482
542,438,147,121082,115497
544,449,147,121095,115495
547,464,147,121108,115504
549,482,147,121141,115506
552,513,147,121156,115522
555,597,147,121171,115525
557,646,147,121188,115532
560,685,147,121198,115542
562,727,147,121219,115541
565,759,147,121234,115545
567,778,148,121244,115555
570,768,148,121253,115561
572,747,147,121270,115557
574,721,148,121285,115570
577,668,148,121306,115570
579,642,148,121314,115579
582,608,148,121327,115581
584,577,148,121321,115580
587,534,148,121323,115585
589,482,148,121338,115593
592,459,148,121354,115584
594,440,148,121362,115596
596,425,148,121372,115591
600,411,148,121380,115595
602,402,147,121389,115596
605,397,147,121400,115599
607,399,147,121398,115601
610,404,147,121397,115607
612,413,147,121408,115602
614,424,147,121418,115608
617,445,147,121422,115607
619,452,147,121420,115621
622,459,147,121432,115616
624,466,147,121448,115620
627,470,147,121463,115626
629,475,147,121464,115628
632,478,147,121477,115626
634,481,147,121476,115633
636,483,147,121490,115643
640,485,147,121495,115643
642,487,147,121514,115642
645,489,147,121530,115653
647,489,147,121539,115653
650,490,147,121543,115656
652,490,147,121552,115664
654,491,147,121569,115670
657,494,147,121569,115677
659,495,147,121590,115675
662,495,147,121596,115680
664,496,147,121602,115679
667,497,147,121616,115679
669,498,147,121618,115692
672,498,147,121630,115689
674,498,147,121641,115695
676,499,147,121651,115694
679,501,147,121655,115701
681,503,147,121659,115702
685,503,147,121665,115705
687,504,147,121667,115696
690,505,147,121669,115700
692,505,147,121687,115699
694,504,147,121686,115689
697,504,147,121688,115709
699,503,147,121698,115710
702,503,147,121705,115713
704,503,147,121708,115717
707,504,147,121723,115724
709,506,147,121730,115718
712,507,147,121734,115717
714,507,147,121751,115728
716,508,147,121749,115731
719,508,148,121760,115728
721,508,147,121769,115730
724,507,147,121769,115735
727,507,147,121780,115737
730,508,147,121785,115737
732,510,147,121785,115740
734,510,147,121770,115733
737,512,148,121751,115723
739,513,147,121751,115704
742,514,147,121681,115684
744,515,148,121627,115657
747,515,148,121627,115626
749,516,147,121471,115587
752,518,147,121386,115587
754,519,147,121292,115503
756,519,148,121175,115457
759,518,147,121080,115408
761,518,148,121080,115367
764,519,148,120856,115316
766,519,148,120744,115316
770,519,148,120627,115236
772,520,148,120526,115189
774,520,148,120526,115138
777,520,147,120301,115093
779,520,148,120202,115093
782,519,148,120102,115023
784,519,148,120102,114983
787,519,148,120006,114946
789,519,148,119836,114946
792,519,148,119756,114912
794,520,148,119675,114844
796,519,148,119675,114822
799,519,148,119533,114801
801,518,148,119458,114801
804,517,148,119390,114744
806,515,148,119390,114721
809,513,148,119329,114692
812,513,148,119209,114692
814,513,148,119162,114667
817,513,148,119109,114633
819,513,148,119109,114618
822,512,148,119032,114602
824,512,148,118987,114602
827,511,148,118952,114590
829,508,148,118952,114557
832,507,148,118919,114555
834,506,148,118867,114555
836,506,148,118841,114541
839,505,148,118820,114518
841,504,148,118798,114518
844,503,148,118776,114511
846,502,148,118776,114505
849,501,148,118773,114510
851,501,148,118751,114503
854,500,148,118751,114498
857,501,148,118755,114498
859,500,148,118748,114497
862,500,148,118749,114492
864,498,148,118749,114504
867,498,148,118759,114504
869,498,148,118759,114506
872,497,148,118771,114505
874,498,148,118777,114505
876,498,148,118798,114507
879,498,148,118807,114521
881,498,148,118817,114521
884,499,148,118817,114530
886,499,148,118838,114543
889,499,148,118869,114543
891,499,148,118869,114547
893,499,148,118889,114563
897,500,148,118919,114563
899,499,148,118944,114571
902,499,148,118944,114586
904,498,148,118979,114586
907,497,148,118979,114595
909,497,148,118998,114609
912,497,148,119035,114609
914,496,148,119035,114615
916,497,148,119061,114637
919,498,148,119107,114637
921,498,148,119107,114653
924,500,148,119123,114658
926,500,148,119151,114670
929,501,148,119166,114670
931,501,148,119211,114673
933,503,148,119211,114691
936,503,148,119254,114691
939,504,148,119254,114709
942,505,148,119285,114726
944,506,148,119310,114729
947,506,148,119322,114729
949,507,148,119366,114740
952,508,148,119366,114759
954,509,148,119417,114759
956,509,148,119417,114777
959,509,148,119439,114787
961,510,148,119463,114794
964,509,148,119481,114806
966,509,148,119506,114814
969,509,148,119530,114814
971,509,148,119549,114818
973,508,148,119576,114832
976,507,148,119599,114838
978,507,148,119625,114844
982,506,148,119677,114857
984,506,148,119677,114879
987,506,148,119696,114879
989,507,148,119713,114885
992,508,148,119747,114903
994,508,148,119757,114911
996,509,148,119787,114906
999,509,148,119803,114921
1001,510,148,119814,114930
1004,510,148,119841,114921
1006,511,148,119854,114932
1009,512,148,119874,114942
1011,512,148,119886,114947
1013,511,148,119896,114952
1016,510,148,119903,114954
1018,509,148,119919,114960
1021,508,148,119925,114961
1024,509,148,119932,114959
1027,509,148,119942,114965
1029,509,148,119950,114964
1032,508,148,119959,114965
1034,508,148,119962,114966
1036,507,148,119950,114963
1039,507,148,119948,114965
1041,507,148,119943,114961
1044,507,148,119940,114965
1046,507,148,119945,114955
1049,508,148,119942,114953
1051,508,148,119939,114940
1053,508,148,119925,114943
1056,507,148,119914,114943
1058,507,148,119908,114937
1061,508,148,119891,114924
1063,508,148,119879,114922
1067,508,148,119866,114916
1069,507,148,119856,114913
1072,507,148,119837,114912
1074,507,148,119836,114895
1076,508,148,119829,114897
1079,509,148,119815,114887
1081,509,148,119800,114888
1084,508,148,119795,114883
1086,508,148,119782,114881
1089,507,148,119762,114876
1091,506,148,119762,114875
1093,506,148,119751,114872
1096,508,148,119749,114860
1098,508,148,119744,114868
1101,508,148,119751,114862
1103,509,148,119740,114860
1106,509,148,119742,114857
1108,509,148,119733,114864
1112,509,148,119733,114855
1114,509,148,119729,114861
1116,509,148,119741,114863
1119,509,148,119734,114864
1121,508,148,119735,114867
1124,507,148,119749,114871
1126,507,148,119748,114868
1129,507,148,119752,114878
1131,508,148,119755,114871
1133,508,148,119766,114878
1136,507,148,119769,114877
1138,507,148,119777,114885
1141,507,148,119781,114889
1143,507,148,119800,114888
1146,507,148,119801,114902
1148,508,148,119814,114899
1152,508,148,119831,114909
1154,508,148,119848,114918
1156,508,148,119864,114920
1159,509,148,119870,114923
1161,509,148,119883,114933
1164,508,148,119898,114934
1166,509,148,119915,114946
1169,509,148,119930,114955
1171,508,148,119959,114966
1173,509,148,119965,114958
1176,510,148,119982,114976
1178,512,148,120004,114979
1181,512,148,120023,114991
1183,513,148,120036,115000
1186,514,148,120050,115008
1188,514,148,120077,115014
1191,514,148,120096,115012
1193,513,148,120119,115031
1196,513,148,120133,115036
1199,513,148,120169,115050
1201,514,148,120184,115058
1204,515,148,120184,115069
1206,516,148,120220,115077
1209,517,148,120249,115077
1211,518,148,120283,115099
1213,519,148,120300,115102
1216,521,148,120321,115111
1218,522,148,120354,115120
1221,521,148,120367,115132
1223,521,148,120394,115146
1226,520,148,120394,115148
1228,518,148,120439,115162
1231,517,148,120462,115162
1233,512,148,120487,115175
1235,511,148,120511,115182
1239,509,148,120525,115192
1241,509,148,120525,115199
1244,508,148,120573,115207
1246,508,148,120592,115207
1249,508,148,120617,115222
1251,508,148,120637,115233
1253,507,148,120637,115248
1256,505,148,120681,115259
1258,504,148,120704,115259
1261,502,148,120734,115274
1263,501,148,120734,115284
1266,501,148,120760,115291
1268,501,148,120801,115291
1271,502,148,120819,115304
1273,502,148,120836,115311
1275,502,148,120836,115327
1278,502,148,120884,115333
1281,503,148,120901,115333
1284,503,148,120927,115347
1286,504,148,120927,115350
1289,504,148,120944,115361
1291,504,148,120978,115361
1293,504,148,121011,115373
1296,503,148,121024,115386
1298,502,148,121024,115396
1301,502,148,121054,115403
1303,503,148,121074,115403
1306,502,148,121105,115407
1308,495,148,121105,115422
1311,486,148,121119,115440
1313,478,148,121157,115440
1315,467,148,121178,115442
1318,452,148,121200,115466
1320,447,148,121216,115466
1324,438,148,121226,115473
1326,438,148,121226,115479
1329,445,148,121253,115488
1331,462,148,121285,115491
1333,484,148,121285,115491
1336,512,148,121309,115491
1338,555,148,121343,115498
1341,603,148,121351,115508
1343,689,148,121351,115519
1346,726,148,121393,115519
1348,770,148,121393,115530
1351,782,148,121402,115538
1353,779,148,121429,115538
1355,766,148,121452,115541
1358,724,148,121465,115556
1360,705,149,121484,115556
1363,652,149,121484,115569
1366,611,148,121505,115581
1369,579,148,121516,115581
1371,526,149,121516,115585
1373,490,148,121541,115591
1376,468,148,121565,115591
1378,450,148,121581,115598
1381,423,148,121581,115608
1383,415,148,121607,115608
1386,402,148,121607,115619
1563,519,147,120411,115073
1555,519,148,120748,115199
1558,520,147,120640,115150
1560,520,147,120520,115107
1563,519,147,120411,115073
1565,519,147,120304,115025
1555,519,148,120748,115199
1558,520,147,120640,115150
1560,520,147,120520,115107
1563,519,147,120411,115073
1565,519,147,120304,115025
1568,520,147,120211,114982
1570,520,148,120108,114951
1572,520,147,120020,114910
1575,519,147,119934,114880
1577,519,147,119864,114854
1581,518,147,119787,114823
1583,516,148,119705,114789
1586,515,147,119635,114761
1588,514,147,119558,114737
1591,514,147,119500,114717
1593,513,147,119435,114692
1595,513,147,119379,114671
1598,513,147,119334,114652
1600,513,147,119281,114625
1603,514,147,119230,114611
1605,513,147,119195,114593
1608,513,147,119153,114587
1610,512,147,119107,114567
1612,511,147,119086,114556
1615,510,147,119042,114543
1617,510,147,119023,114536
1620,509,147,119007,114523
1623,507,147,118974,114519
1626,505,147,118956,114511
1628,504,147,118938,114509
1631,502,147,118918,114488
1633,501,147,118911,114494
1635,500,147,118918,114495
1638,500,147,118908,114491
1640,499,147,118910,114491
1643,499,147,118898,114494
1645,498,147,118897,114491
1648,498,147,118902,114488
1650,498,147,118898,114490
1652,499,147,118916,114498
1655,499,147,118931,114507
1657,498,147,118941,114509
1660,498,147,118947,114514
1662,497,147,118960,114521
1666,497,147,118980,114521
1668,497,147,118991,114533
1671,497,147,119004,114535
1673,496,147,119024,114543
1675,496,147,119040,114543
1678,497,147,119061,114551
1680,498,147,119074,114560
1683,499,147,119089,114558
1685,499,147,119113,114573
1688,498,147,119113,114591
1690,498,147,119155,114594
1692,498,147,119172,114594
1695,498,147,119203,114620
1697,498,147,119222,114615
1700,498,147,119246,114626
1702,498,147,119260,114637
1705,499,147,119284,114647
1708,500,147,119316,114660
1711,500,147,119316,114661
1713,501,146,119347,114671
1715,502,147,119370,114671
1718,503,147,119396,114692
1720,504,147,119423,114695
1723,504,147,119423,114702
1725,504,147,119460,114708
1728,505,146,119483,114708
1730,505,146,119512,114738
1732,505,146,119512,114740
1735,505,146,119561,114753
1737,505,146,119566,114753
1740,505,146,119591,114766
1742,506,146,119611,114770
1745,506,146,119611,114780
1747,507,146,119658,114791
1751,508,146,119676,114791
1753,508,146,119701,114813
1755,508,146,119701,114817
1758,509,146,119738,114824
1760,509,146,119766,114824
1763,509,146,119791,114832
1765,508,146,119808,114853
1768,508,146,119823,114868
1770,509,146,119823,114870
1772,509,146,119851,114876
1775,509,146,119888,114888
1777,510,146,119914,114888
1780,509,146,119933,114900
1782,508,146,119933,114902
1785,507,146,119949,114911
1787,507,146,119975,114911
1790,506,146,119996,114921
1793,507,146,120008,114919
1795,508,146,120008,114927
1798,508,146,120038,114936
1800,508,146,120043,114936
1803,508,146,120053,114948
1805,508,146,120053,114943
1808,508,146,120061,114947
1810,508,146,120073,114947
1812,508,146,120085,114955
1815,508,146,120085,114947
1817,509,146,120082,114942
1820,510,146,120076,114942
1822,511,146,120081,114951
1825,511,146,120074,114947
1827,511,146,120074,114947
1830,510,145,120064,114935
1832,510,145,120051,114935
1835,509,146,120049,114926
1838,508,146,120033,114913
1840,507,145,120022,114913
1843,506,145,120022,114903
1845,505,145,120007,114897
1848,505,145,119980,114897
1850,505,145,119980,114890
1852,505,145,119980,114887
1855,506,145,119943,114887
1857,506,145,119931,114877
1860,507,145,119915,114865
1862,507,145,119905,114865
1865,508,145,119905,114850
1867,508,145,119896,114850
1870,508,145,119872,114850
1872,507,145,119872,114835
1874,506,145,119873,114834
1878,506,145,119844,114834
1880,506,145,119844,114837
1883,507,145,119844,114829
1885,507,145,119831,114820
1888,507,145,119824,114820
1890,506,145,119823,114817
1892,506,145,119823,114814
1895,507,145,119804,114814
1897,507,145,119800,114820
1900,508,145,119800,114822
1902,508,145,119807,114821
1905,508,145,119811,114821
1907,508,145,119809,114822
1910,508,145,119809,114826
1912,508,145,119812,114828
1914,509,145,119811,114828
1917,510,145,119828,114833
1920,511,144,119839,114838
1923,512,144,119839,114840
1925,512,144,119845,114838
1928,511,144,119856,114838
1930,509,144,119862,114840
1932,508,144,119862,114853
1935,506,144,119875,114854
1937,506,144,119874,114854
1940,506,144,119890,114853
1942,506,144,119897,114866
1945,506,144,119915,114866
1947,507,144,119940,114876
1950,507,144,119956,114886
1952,508,144,119956,114891
1954,509,144,119965,114891
1957,510,144,119989,114904
1959,512,144,120000,114904
1963,512,144,120020,114906
1965,514,144,120049,114920
1968,513,144,120058,114926
1970,513,144,120068,114934
1972,514,144,120090,114942
1975,513,144,120108,114942
1977,515,144,120123,114954
1980,515,144,120140,114964
1982,517,144,120171,114967
1985,518,144,120185,114984
1987,520,143,120217,114992
1990,521,143,120233,115000
1992,521,143,120247,115003
1994,521,143,120275,115014
1997,521,143,120301,115028
1999,520,143,120329,115045
2002,519,143,120347,115049
2004,518,143,120365,115054
2008,517,143,120390,115065
2010,514,143,120417,115080
2012,513,143,120436,115087
2015,512,143,120464,115094
2017,511,143,120496,115107
2020,509,143,120514,115113
2022,509,143,120545,115126
2025,508,143,120560,115139
2027,508,143,120583,115137
2030,507,143,120612,115148
2032,505,143,120625,115158
2034,504,143,120648,115174
2037,503,143,120676,115183
2039,502,143,120699,115185
2042,502,143,120729,115195
2044,501,143,120759,115206
2048,501,143,120772,115223
2050,502,143,120795,115234
2052,501,143,120829,115248
2055,502,142,120845,115247
2057,502,142,120874,115260
2060,502,142,120910,115277
2062,502,143,120938,115294
2065,502,142,120977,115301
2067,503,142,120996,115308
2070,503,142,121026,115323
2072,503,142,121052,115334
2074,503,142,121091,115355
2077,503,142,121118,115361
2079,502,142,121140,115371
2082,501,142,121179,115381
2084,494,142,121207,115392
2087,488,142,121228,115401
2089,480,142,121253,115410
2092,468,142,121281,115418
2095,456,142,121293,115429
2097,446,142,121321,115432
2100,440,141,121346,115443
2102,438,141,121372,115451
2105,443,141,121402,115462
2107,453,141,121418,115463
2110,469,141,121445,115476
2112,522,141,121467,115481
2114,558,141,121488,115496
2117,598,141,121503,115505
2119,653,141,121530,115497
2122,717,141,121547,115526
2124,748,141,121592,115540
2127,774,141,121612,115550
2129,772,141,121643,115567
2131,753,141,121675,115573
2135,733,141,121699,115585
2137,703,141,121723,115601
2140,653,141,121755,115609
2142,619,141,121787,115615
2145,588,141,121803,115625
2147,551,141,121829,115638
2150,511,141,121841,115644
2152,464,141,121860,115655
2154,445,141,121887,115660
2157,431,141,121911,115667
2159,416,141,121935,115671
2162,407,141,121944,115682
2164,398,141,121976,115694
2167,397,141,121993,115698
2169,404,140,122006,115706
2171,412,140,122006,115704
2174,424,140,122037,115718
2177,440,140,122060,115722
2180,448,140,122078,115729
2182,458,140,122084,115733
2185,464,140,122099,115740
2187,472,140,122116,115745
2190,475,140,122116,115747
2192,477,140,122143,115754
2194,479,140,122151,115754
2197,481,140,122165,115763
2199,483,140,122173,115766
2202,483,140,122173,115767
2204,485,140,122186,115779
2207,486,140,122203,115779
2209,487,140,122215,115791
2211,488,140,122225,115786
2214,490,139,122230,115789
2216,490,139,122230,115790
2220,492,139,122233,115802
2222,493,140,122252,115802
2225,493,139,122252,115803
2227,493,139,122268,115799
2230,494,139,122276,115799
2232,495,139,122288,115816
2234,496,139,122283,115813
2237,497,139,122299,115818
2239,497,139,122299,115817
2242,498,139,122317,115824
2244,499,139,122319,115824
2247,499,139,122331,115826
2249,499,139,122335,115825
2251,500,139,122335,115821
2254,501,139,122340,115821
2256,502,139,122337,115821
2259,503,139,122343,115821
2262,503,139,122343,115829
2265,503,139,122345,115823
2267,504,139,122358,115823
2270,504,139,122379,115832
2272,506,138,122375,115834
2274,506,139,122375,115837
2277,507,138,122383,115831
2279,507,139,122379,115831
2282,507,138,122388,115825
2284,507,138,122388,115836
2287,508,138,122384,115832
2289,509,138,122387,115832
2291,508,138,122378,115826
2294,505,138,122356,115806
2296,504,138,122356,115798
2299,502,138,122325,115776
2301,502,138,122234,115776
2305,502,138,122174,115746
2307,501,138,122174,115682
2310,501,138,122083,115629
2312,501,138,121867,115629
2314,501,138,121746,115578
2317,500,138,121608,115465
2319,500,138,121465,115465
2322,501,138,121465,115354
2324,501,137,121330,115303
2327,501,137,121065,115303
2329,501,137,121065,115201
2331,500,138,120946,115155
2334,500,138,120712,115155
2336,499,137,120605,115112
2339,499,137,120496,115025
2341,499,137,120401,115025
2344,499,137,120401,114945
2347,498,137,120311,114920
2350,497,137,120127,114920
2352,495,137,120127,114850
2354,494,137,120050,114822
2357,494,137,119912,114822
2359,493,137,119839,114798
2362,491,137,119839,114744
2364,491,137,119713,114744
2367,490,137,119713,114697
2369,489,137,119625,114681
2371,488,137,119548,114681
2374,486,137,119548,114630
2376,486,137,119498,114618
2379,485,137,119402,114618
2381,485,137,119368,114603
2384,483,137,119368,114582
2386,482,137,119296,114582
2390,479,137,119296,114548
2392,477,137,119261,114541
2394,476,137,119224,114541
2397,474,137,119181,114529
2399,472,136,119155,114522
2402,469,136,119155,114506
2404,466,136,119144,114502
2407,463,136,119110,114502
2409,458,136,119092,114497
2411,454,136,119092,114483
2414,445,136,119083,114480
2416,443,136,119076,114480
2419,440,136,119068,114484
2421,437,136,119071,114479
2424,435,136,119064,114474
2426,432,136,119075,114471
2429,430,136,119066,114473
2432,429,136,119066,114482
2434,425,136,119072,114482
2437,423,136,119075,114486
2439,423,136,119087,114490
2442,422,136,119100,114498
2444,421,136,119136,114504
2447,422,136,119132,114506
2449,422,136,119142,114518
2451,423,136,119149,114518
2454,424,136,119165,114521
2456,428,136,119177,114534
2459,430,135,119219,114538
2461,431,135,119219,114550
2464,432,136,119238,114550
2466,433,135,119251,114563
2469,434,135,119280,114561
2471,434,135,119281,114583
2473,436,135,119301,114584
2477,437,135,119326,114590
2479,440,135,119335,114593
2482,441,135,119350,114595
2484,441,135,119373,114606
2487,442,135,119384,114612
2489,442,135,119398,114617
2491,441,135,119422,114621
2494,439,135,119435,114631
2496,438,135,119454,114636
2499,438,135,119475,114650
2501,439,135,119494,114653
2504,440,135,119501,114663
2506,442,135,119519,114668
2509,443,135,119536,114672
2511,444,135,119560,114680
2513,445,135,119579,114688
2516,448,135,119590,114697
2519,450,135,119605,114702
2522,450,135,119626,114712
2524,452,135,119655,114715
2527,453,135,119673,114722
2529,455,135,119686,114731
2531,456,135,119708,114744
2534,457,135,119721,114745
2536,459,135,119741,114744
2539,460,135,119771,114760
2541,462,135,119786,114765
2544,463,135,119799,114776
2546,465,135,119811,114775
2549,466,135,119830,114780
2551,468,135,119839,114787
2553,469,135,119860,114793
2556,470,135,119878,114795
2558,470,135,119894,114801
2562,471,135,119898,114803
2564,472,134,119905,114805
2567,473,134,119929,114816
2569,475,135,119942,114816
2571,477,134,119948,114820
2574,480,135,119954,114820
2576,481,134,119958,114823
2579,484,135,119965,114827
2581,485,135,119969,114834
2584,486,135,119981,114832
2586,487,135,119993,114827
2589,488,135,119987,114828
2591,490,135,119980,114820
2593,491,135,119972,114829
2596,491,134,119975,114821
2598,492,134,119982,114825
2601,494,134,119963,114821
2604,496,134,119965,114819
2607,497,134,119958,114813
2609,498,134,119949,114809
2611,499,134,119939,114809
2614,500,134,119922,114798
2616,500,134,119926,114800
2619,501,134,119915,114793
2621,501,134,119897,114785
2624,502,134,119885,114777
2626,503,134,119878,114773
2629,504,134,119866,114763
2631,504,134,119851,114760
2633,505,134,119845,114753
2636,506,134,119828,114756
2638,507,134,119822,114753
2641,507,134,119820,114746
2643,507,134,119801,114740
2647,507,134,119790,114727
2649,507,134,119792,114728
2651,506,134,119779,114722
2654,507,134,119764,114717
2656,507,134,119748,114713
2659,507,134,119747,114709
2661,507,134,119729,114704
2664,508,134,119733,114697
2666,509,134,119725,114696
2669,511,134,119722,114691
2671,511,134,119711,114683
2673,512,134,119704,114688
2676,514,134,119709,114691
2678,516,134,119694,114690
2681,517,134,119694,114689
2683,518,134,119698,114687
2686,520,134,119696,114687
2689,521,134,119709,114689
2691,522,134,119699,114686
2694,523,134,119701,114682
2696,524,134,119701,114683
2699,524,134,119710,114688
2701,525,134,119717,114689
2704,526,134,119717,114692
2706,529,134,119719,114691
2709,531,134,119726,114691
2711,534,134,119745,114704
2713,535,134,119755,114707
2716,537,134,119764,114715
2718,537,134,119764,114719
2721,537,134,119777,114709
2723,537,134,119791,114723
2726,536,134,119791,114723
2728,535,134,119812,114729
2731,534,134,119823,114729
2734,531,134,119848,114743
2736,531,134,119848,114739
2739,530,134,119843,114751
2741,530,134,119875,114751
2744,530,134,119892,114758
2746,529,134,119905,114763
2749,529,134,119914,114780
2751,527,134,119929,114779
2753,527,134,119937,114779
2756,525,134,119956,114786
2758,525,134,119956,114799
2761,524,134,119976,114803
2763,524,134,120001,114803
2766,525,134,120023,114810
2768,526,134,120038,114820
2770,526,134,120038,114834
2774,527,134,120075,114837
2776,528,134,120091,114837
2779,529,134,120100,114851
2781,530,133,120100,114860
2784,531,134,120128,114874
2786,532,134,120159,114874
2789,533,134,120185,114880
2791,534,133,120185,114885
2793,535,133,120203,114896
2796,535,133,120239,114896
2798,536,134,120265,114911
2801,536,133,120283,114923
2803,536,133,120283,114933
2806,536,133,120331,114939
2808,534,133,120344,114939
2810,530,133,120374,114948
2813,518,133,120392,114968
2816,512,133,120402,114968
2819,494,133,120402,114984
2821,486,133,120433,114998
2824,482,133,120480,114998
2826,479,133,120480,115004
2829,481,133,120497,115023
2831,486,133,120525,115023
2833,496,133,120558,115029
2836,533,133,120577,115041
2838,557,133,120597,115041
2841,639,133,120597,115060
2843,698,133,120615,115065
2846,738,133,120649,115065
2848,794,133,120649,115085
2850,815,133,120687,115086
2853,815,134,120717,115086
2855,804,133,120743,115109
2859,757,134,120743,115118
2861,727,134,120766,115124
2864,703,134,120780,115124
2866,679,134,120828,115140
2869,623,134,120828,115153
2871,599,134,120863,115153
2873,564,134,120876,115162
2876,514,134,120876,115174
2878,490,134,120903,115181
2881,477,134,120937,115181
2883,463,134,120952,115191
2886,444,134,120952,115211
2888,436,133,120972,115213
2890,433,133,120990,115213
2893,433,133,121029,115216
2895,436,133,121043,115235
2898,451,133,121043,115242
2900,465,133,121062,115247
2904,475,133,121095,115247
2906,484,133,121103,115245
2909,495,133,121103,115262
2911,509,133,121123,115267
2913,513,133,121138,115267
2916,517,133,121152,115278
2918,520,133,121167,115286
2921,521,133,121177,115285
2923,524,133,121202,115296
2926,525,133,121224,115291
2928,526,133,121238,115305
2930,527,133,121238,115310
2933,527,133,121246,115307
2935,528,133,121255,115307
2938,528,133,121266,115317
2940,528,133,121280,115320
2944,528,133,121289,115326
2946,529,133,121306,115331
2949,528,133,121336,115336
2951,528,133,121336,115345
2953,528,133,121350,115345
2956,527,133,121343,115357
2958,528,133,121365,115353
2961,528,133,121383,115356
2963,529,133,121390,115360
2966,529,133,121400,115367
2968,530,133,121422,115381
2970,530,133,121427,115381
2973,531,133,121443,115379
2975,532,133,121455,115385
2978,532,133,121459,115391
2980,533,133,121473,115398
2983,533,133,121493,115400
2985,534,133,121507,115405
2989,534,133,121520,115416
2991,535,133,121525,115422
2993,535,133,121539,115428
2996,536,133,121552,115438
2998,537,133,121569,115436
3001,538,133,121580,115442
3003,538,133,121599,115447
3006,539,133,121615,115453
3008,539,133,121629,115457
3010,540,133,121641,115458
3013,542,133,121652,115466
3015,542,133,121658,115470
3018,543,133,121653,115461
3020,544,133,121648,115458
3023,544,133,121631,115456
3025,545,133,121606,115442
3028,546,133,121579,115420
3031,546,133,121537,115394
3033,547,133,121482,115372
3036,547,133,121411,115344
3038,548,133,121330,115306
3041,550,133,121241,115259
3043,550,133,121135,115213
3046,551,133,121025,115174
3048,551,133,120914,115114
3050,552,133,120809,115080
3053,552,133,120682,115034
3055,552,133,120576,114993
3058,552,133,120481,114947
3060,552,133,120379,114908
3063,551,133,120276,114871
3065,551,133,120186,114830
3068,551,133,120093,114796
3070,551,133,120012,114771
3073,550,133,119939,114742
3076,550,133,119852,114708
3078,551,133,119785,114683
3081,550,133,119715,114651
3083,549,133,119650,114632
3086,549,133,119593,114606
3088,548,133,119535,114590
3090,548,133,119470,114563
3093,547,133,119416,114536
3095,546,133,119362,114515
3098,546,133,119309,114495
3100,545,133,119260,114474
3103,545,133,119221,114465
3105,544,133,119176,114449
3108,544,133,119140,114430
3110,544,133,119103,114416
3112,543,133,119066,114401
3116,542,133,119024,114393
3118,540,133,118994,114381
3121,539,133,118976,114368
3123,537,133,118947,114359
3126,536,133,118924,114353
3128,535,133,118910,114343
3130,534,133,118890,114332
3133,533,133,118877,114332
3135,532,133,118869,114329
3138,531,133,118852,114324
3140,530,133,118846,114318
3143,529,133,118837,114319
3145,527,133,118843,114319
3148,526,133,118840,114313
3150,526,133,118845,114319
3152,525,133,118843,114318
3155,525,133,118849,114318
3158,525,133,118863,114323
3161,524,133,118863,114332
3163,524,133,118876,114337
3166,524,133,118890,114337
3168,524,133,118915,114341
3170,524,133,118925,114350
3173,525,133,118936,114358
3175,525,133,118954,114365
3178,525,133,118967,114367
3180,525,133,118981,114374
3183,525,133,118981,114386
3185,526,133,119021,114391
3188,526,133,119032,114391
3190,526,133,119066,114415
3192,526,133,119080,114413
3195,527,133,119108,114426
3197,527,133,119108,114430
3201,528,133,119146,114437
3203,529,133,119164,114437
3206,529,133,119192,114457
3208,529,133,119211,114468
3210,529,133,119211,114475
3213,530,133,119256,114488
3215,530,133,119284,114488
3218,531,133,119306,114501
3220,531,133,119306,114505
3223,531,133,119321,114523
3225,531,133,119373,114523
3228,531,134,119396,114527
3230,532,133,119421,114552
3232,532,133,119421,114556
3235,533,133,119465,114565
3237,533,133,119484,114565
3240,534,133,119513,114591
3243,533,133,119513,114596
3246,533,133,119535,114617
3248,533,134,119585,114617
3250,534,133,119606,114623
3253,535,133,119633,114640
3255,535,134,119633,114644
3258,535,134,119660,114658
3260,535,133,119714,114658
3263,535,134,119737,114666
3265,534,133,119737,114685
3268,535,134,119763,114703
3270,535,133,119816,114703
3272,536,134,119851,114714
3275,535,133,119874,114736
3277,535,134,119888,114736
3280,536,134,119908,114748
3282,536,134,119908,114762
3286,536,134,119944,114767
3288,536,134,119986,114777
3290,536,134,119986,114779
3293,536,134,120015,114779
3295,535,134,120037,114782
3298,535,134,120053,114787
3300,534,134,120053,114794
3303,534,134,120065,114794
3305,533,134,120065,114799
3308,533,134,120077,114796
3310,533,134,120073,114796
3312,533,134,120087,114799
3315,532,134,120091,114803
3317,532,134,120095,114803
3320,532,134,120095,114796
3322,532,134,120100,114791
3325,532,134,120080,114791
3328,531,134,120080,114793
3330,531,134,120079,114791
3333,531,134,120059,114791
3335,530,134,120053,114788
3338,530,134,120053,114771
3340,529,134,120022,114771
3343,529,134,120022,114758
3345,528,134,120015,114751
3348,528,134,119977,114751
3350,529,134,119977,114733
3352,529,134,119977,114732
3355,529,134,119936,114728
3357,529,134,119936,114712
3360,530,134,119921,114711
3362,531,134,119903,114711
3365,532,134,119897,114711
3367,532,134,119878,114705
3369,532,134,119878,114691
3373,532,134,119847,114691
3375,532,134,119839,114687
3378,532,134,119839,114676
3380,532,134,119833,114676
3383,533,134,119820,114677
3385,534,134,119815,114671
3388,536,134,119815,114670
3390,538,134,119810,114660
3392,538,134,119796,114660
3395,539,134,119798,114664
3397,539,134,119795,114667
3400,539,134,119789,114660
3402,538,134,119797,114664
3405,537,134,119788,114665
3407,535,134,119793,114667
3409,534,134,119793,114660
3412,531,134,119797,114670
3415,530,135,119803,114670
3418,528,134,119804,114673
3420,528,135,119803,114667
3423,527,135,119813,114671
3425,525,135,119822,114679
3428,524,135,119843,114683
3430,523,135,119848,114683
3432,522,135,119848,114687
3435,521,135,119856,114687
3437,519,135,119861,114693
3440,518,134,119883,114703
3442,517,135,119881,114705
3445,517,134,119905,114705
3447,516,134,119916,114712
3449,515,135,119930,114722
3452,515,135,119938,114730
3454,515,135,119946,114725
3458,515,135,119968,114734
3460,516,135,119967,114735
3463,515,135,119988,114751
3465,516,135,120012,114748
3468,516,135,120028,114763
3470,516,135,120048,114765
3472,516,135,120064,114770
3475,516,135,120076,114782
3477,516,135,120095,114787
3480,516,135,120110,114794
3482,516,135,120118,114803
3485,515,135,120140,114817
3487,515,135,120170,114815
3489,511,135,120193,114824
3492,500,135,120204,114826
3494,490,135,120219,114835
3497,481,135,120238,114842
3500,472,135,120250,114854
3503,464,135,120280,114868
3505,457,135,120290,114869
3508,456,135,120311,114868
3510,459,135,120338,114880
3512,465,135,120361,114891
3515,497,135,120386,114901
3517,527,135,120407,114909
3520,563,135,120409,114918
3522,612,135,120442,114931
3525,670,135,120462,114933
3527,747,135,120484,114941
3529,774,135,120494,114958
3532,789,135,120530,114961
3534,788,135,120544,114971
3537,769,135,120560,114981
3539,725,135,120585,114982
3543,702,135,120603,114995
3545,673,135,120623,115009
3548,641,135,120649,115008
3550,573,135,120660,115020
3552,542,135,120686,115028
3555,513,136,120702,115034
3557,484,135,120731,115036
3560,451,135,120753,115046
3562,438,135,120767,115063
3565,423,135,120782,115061
3567,407,135,120801,115073
3569,403,135,120823,115076
3572,402,135,120840,115090
3574,404,135,120856,115092
3577,420,135,120882,115100
3579,432,135,120899,115114
3582,444,135,120915,115104
3585,454,135,120933,115124
3588,465,135,120949,115114
3590,477,135,120965,115142
3592,481,135,121000,115145
3595,484,135,121011,115154
3597,486,135,121024,115166
3600,489,135,121039,115171
3602,491,135,121060,115176
3605,492,135,121073,115181
3607,494,135,121092,115192
3609,496,135,121114,115195
3612,497,135,121133,115202
3614,499,135,121139,115205
3617,501,135,121160,115220
3619,501,135,121169,115225
3622,501,135,121196,115227
3624,501,135,121211,115230
3628,501,135,121218,115236
3630,500,136,121243,115246
3632,501,135,121257,115243
3635,501,136,121270,115253
3637,502,135,121284,115254
3640,503,135,121291,115266
3642,503,135,121312,115266
3645,504,135,121312,115278
3647,505,136,121325,115277
3649,505,136,121340,115277
3652,506,136,121355,115290
3654,506,136,121374,115292
3657,507,135,121387,115297
3659,508,136,121396,115299
3662,508,136,121407,115309
3664,509,136,121419,115308
3667,509,136,121419,115314
3670,510,136,121447,115320
3672,510,136,121462,115320
3675,511,136,121479,115338
3677,511,136,121490,115343
3680,512,136,121490,115341
3682,512,136,121508,115348
3685,513,136,121532,115348
3687,514,136,121535,115356
3689,514,136,121535,115360
3692,515,136,121550,115353
3694,516,136,121550,115353
3697,516,136,121559,115359
3699,517,136,121539,115339
3702,517,136,121539,115330
3704,518,136,121497,115319
3707,518,136,121461,115319
3709,520,136,121411,115271
3712,520,136,121411,115232
3715,521,136,121259,115206
3717,522,136,121166,115206
3720,522,136,121073,115165
3722,521,136,120956,115069
3725,521,136,120847,115029
3727,520,136,120847,114980
3729,519,136,120731,114934
3732,519,136,120501,114884
3734,519,136,120388,114884
3737,519,136,120291,114801
3739,519,136,120291,114758
3742,519,136,120190,114721
3744,519,136,119991,114721
3747,519,136,119910,114686
3749,519,136,119910,114610
3751,518,136,119821,114592
3755,517,136,119675,114560
3757,516,136,119675,114534
3760,516,136,119526,114500
3762,516,136,119463,114500
3765,516,136,119399,114476
3767,516,136,119399,114432
3769,515,136,119338,114412
3772,515,136,119222,114391
3774,515,136,119163,114391
3777,513,136,119163,114344
3779,513,136,119054,114344
3782,512,136,119011,114332
3784,510,137,119011,114288
3787,510,137,118968,114269
3789,510,136,118887,114269
3791,510,137,118855,114252
3794,511,137,118820,114224
3796,511,137,118778,114224
3800,508,137,118778,114207
3802,505,137,118759,114196
3805,503,137,118704,114196
3807,499,137,118704,114170
3809,497,136,118689,114164
3812,496,137,118652,114164
3814,495,137,118612,114160
3817,493,137,118628,114149
3819,492,137,118622,114149
3822,489,137,118622,114146
3824,488,137,118623,114145
3827,488,137,118609,114145
3829,488,137,118609,114150
3831,488,137,118622,114147
3834,488,137,118622,114147
3836,488,137,118626,114156
3840,489,137,118626,114162
3842,489,137,118638,114164
3845,490,137,118648,114164
3847,490,137,118675,114170
3849,491,137,118675,114181
3852,491,137,118696,114181
3854,491,137,118717,114190
3857,491,137,118717,114202
3859,491,137,118730,114213
3862,492,137,118774,114213
3864,492,137,118794,114212
3867,493,137,118794,114241
3869,493,137,118810,114237
3871,494,137,118823,114237
3874,493,137,118872,114251
3876,493,137,118898,114271
3879,493,137,118898,114274
3881,493,137,118918,114283
3885,493,137,118964,114283
3887,493,137,118985,114295
3889,494,137,118985,114314
3892,494,137,119008,114330
3894,494,137,119031,114330
3897,494,137,119060,114334
3899,494,137,119085,114341
3902,495,137,119099,114349
3904,496,137,119131,114361
3907,496,137,119177,114366
3909,496,137,119193,114371
3911,496,137,119193,114398
3914,496,137,119222,114410
3916,497,137,119250,114410
3919,497,137,119276,114424
3921,497,137,119289,114425
3924,498,137,119318,114433
3927,498,137,119339,114445
3929,498,137,119371,114457
3932,498,137,119385,114465
3934,499,138,119418,114476
3937,498,137,119437,114489
3939,499,137,119469,114492
3942,499,137,119486,114508
3944,500,138,119523,114513
3947,500,138,119550,114527
3949,500,137,119571,114536
3951,500,138,119600,114552
3954,500,138,119623,114564
3956,499,138,119653,114569
3959,499,138,119680,114586
3961,500,138,119696,114583
3964,500,137,119723,114599
3966,501,138,119745,114603
3969,501,138,119775,114611
3972,503,138,119799,114622
3974,504,138,119814,114630
3977,504,137,119814,114632
3979,503,138,119842,114633
3982,500,138,119848,114640
3984,495,138,119855,114644
3987,492,138,119860,114644
3989,491,138,119875,114642
3991,490,138,119875,114640
3994,490,138,119879,114643
3996,490,138,119883,114644
3999,490,138,119889,114645
4001,491,138,119890,114650
4004,492,138,119892,114645
4006,492,138,119896,114644
4008,493,138,119890,114637
4012,494,138,119882,114638
4014,494,138,119884,114636
4017,495,138,119872,114625
4019,495,138,119882,114631
4022,495,138,119864,114628
4024,494,138,119861,114615
4027,494,138,119844,114618
4029,494,138,119845,114618
4031,495,138,119840,114616
4034,496,138,119837,114606
4036,496,138,119822,114606
4039,496,138,119820,114600
4041,495,138,119813,114606
4044,493,138,119804,114596
4046,492,138,119797,114592
4048,491,138,119796,114599
4051,490,138,119786,114595
4054,489,138,119787,114597
4057,489,138,119789,114591
4059,489,138,119783,114588
4062,489,138,119775,114589
4064,490,138,119772,114593
4067,491,138,119772,114588
4069,491,138,119778,114592
4071,492,138,119781,114590
4074,493,138,119773,114583
4076,495,138,119775,114590
4079,497,138,119779,114590
4081,500,138,119774,114587
4084,503,138,119773,114590
4086,503,138,119788,114590
4088,503,138,119793,114572
4091,501,138,119794,114593
4093,499,138,119804,114605
4097,499,138,119808,114605
4099,499,138,119818,114607
4102,500,139,119829,114614
4104,502,138,119832,114613
4107,504,138,119841,114612
4109,504,138,119853,114625
4111,505,138,119875,114632
4114,503,139,119884,114636
4116,502,139,119897,114642
4119,502,139,119916,114648
4121,502,139,119932,114645
4124,502,139,119946,114661
4126,503,139,119955,114664
4128,502,139,119971,114668
4131,499,139,120000,114681
4133,496,139,120008,114691
4136,492,139,120025,114699
4139,490,139,120051,114699
4142,489,139,120051,114718
4144,488,139,120086,114720
4147,488,139,120107,114720
4149,488,139,120135,114741
4151,487,139,120150,114750
4154,487,139,120172,114753
4156,485,139,120192,114764
4159,484,139,120218,114779
4161,483,139,120243,114780
4164,482,139,120243,114793
4166,482,139,120286,114802
4168,483,139,120308,114802
4171,484,139,120343,114824
4173,484,139,120365,114835
4176,484,139,120388,114849
4178,484,139,120388,114852
4182,483,139,120428,114866
4184,484,139,120463,114867
4187,483,139,120463,114884
4189,483,139,120500,114896
4191,483,139,120531,114896
4194,482,139,120563,114914
4196,482,139,120563,114925
4199,482,139,120574,114933
4201,482,139,120627,114933
4204,482,139,120655,114941
4206,476,139,120673,114962
4208,471,139,120673,114968
4211,461,139,120728,114985
4213,453,139,120743,114985
4216,443,139,120779,115006
4218,431,139,120779,115010
4221,426,139,120797,115017
4224,424,139,120855,115017
4227,424,139,120886,115034
4229,438,139,120907,115047
4231,451,139,120907,115057
4234,481,139,120946,115069
4236,514,139,120974,115069
4239,554,139,120997,115081
4241,651,139,120997,115096
4244,704,139,121037,115103
4246,737,139,121062,115103
4248,761,140,121084,115116
4251,770,139,121106,115131
4253,762,140,121125,115131
4256,740,140,121148,115149
4258,694,140,121148,115159
4261,656,140,121171,115167
4263,625,140,121220,115167
4267,585,140,121229,115176
4269,515,140,121229,115182
4271,476,140,121257,115189
4274,454,140,121283,115189
4276,432,140,121303,115199
4279,418,140,121324,115210
4281,393,140,121324,115219
4284,383,140,121363,115232
4286,379,140,121380,115232
4288,378,140,121408,115243
4291,390,139,121408,115255
4293,404,140,121430,115267
4296,415,139,121463,115267
4298,425,140,121482,115280
4301,442,140,121482,115288
4303,448,140,121520,115288
4306,454,139,121552,115300
4308,461,140,121552,115309
4311,464,139,121559,115314
4314,465,140,121596,115314
4316,466,140,121613,115324
4319,468,140,121613,115337
4321,470,140,121627,115335
4324,471,140,121644,115335
4326,474,140,121665,115350
4328,475,140,121676,115345
4331,479,140,121676,115359
4333,479,140,121685,115372
4336,480,140,121712,115372
4338,480,140,121727,115366
4341,481,140,121727,115381
4343,481,139,121742,115386
4346,481,140,121755,115386
4348,482,140,121789,115390
4350,483,140,121793,115395
4354,485,140,121793,115408
4356,486,140,121808,115406
4359,486,140,121824,115406
4361,486,140,121845,115415
4364,487,140,121845,115420
4366,487,140,121851,115429
4368,488,140,121869,115429
4371,488,140,121877,115433
4373,488,140,121890,115444
4376,487,140,121908,115451
4378,487,140,121924,115451
4381,489,140,121941,115454
4383,491,140,121953,115464
4386,493,140,121953,115469
4388,494,140,121971,115480
4390,494,140,121988,115480
4393,492,140,122003,115489
4396,491,140,122009,115490
4399,491,140,122030,115492
4401,493,140,122043,115493
4404,494,140,122065,115502
4406,495,140,122064,115505
4408,496,140,122064,115504
4411,497,140,122076,115504
4413,498,140,122056,115492
4416,499,140,122047,115490
4418,500,140,122028,115474
4421,500,140,121984,115447
4423,500,140,121927,115424
4426,501,140,121849,115395
4428,501,140,121777,115351
4430,503,140,121664,115304
4433,503,140,121552,115254
4435,504,140,121428,115201
4439,504,140,121294,115145
4441,507,140,121167,115086
4444,508,140,121040,115038
4446,509,140,120897,114971
4448,509,140,120777,114927
4451,510,140,120654,114880
4453,510,140,120539,114841
4456,510,140,120428,114801
4458,509,140,120319,114762
4461,508,140,120226,114723
4463,508,140,120133,114682
4466,508,140,120037,114644
4468,504,140,119958,114610
4470,502,140,119875,114575
4473,501,140,119788,114546
4475,500,140,119719,114519
4478,500,140,119640,114489
4481,499,140,119573,114473
4484,499,140,119506,114437
4486,500,140,119456,114415
4488,501,140,119389,114395
4491,502,140,119339,114369
4493,502,140,119290,114354
4496,503,140,119258,114341
4498,504,140,119215,114332
4501,504,140,119167,114315
4503,503,140,119126,114299
4506,502,141,119087,114280
4508,501,140,119053,114273
4510,500,140,119024,114262
4513,500,141,119004,114245
4515,500,140,118988,114245
4518,501,141,118958,114234
4520,501,141,118948,114234
4524,502,141,118930,114227
4526,501,141,118919,114220
4528,499,141,118911,114216
4531,497,141,118900,114217
4533,495,140,118897,114221
4536,491,140,118891,114214
4538,490,141,118886,114225
4541,490,141,118899,114208
4543,490,141,118899,114213
4546,489,141,118892,114216
4548,486,141,118903,114218
4550,485,141,118913,114222
4553,485,141,118915,114218
4555,484,141,118925,114228
4558,485,141,118930,114234
4560,487,141,118949,114235
4563,487,141,118963,114245
4566,486,141,118981,114257
4568,485,141,118994,114260
4571,485,141,119009,114262
4573,486,141,119035,114276
4576,486,141,119040,114280
4578,488,141,119064,114284
4581,490,141,119082,114292
4583,491,141,119091,114297
4586,490,141,119126,114309
4588,489,141,119147,114320
4590,488,141,119171,114330
4593,487,141,119196,114339
4595,487,141,119223,114346
4598,487,141,119242,114360
4600,489,141,119271,114369
4603,489,141,119291,114382
4605,492,141,119316,114391
4608,494,141,119339,114398
4611,494,141,119368,114413
4613,495,141,119394,114418
4616,495,141,119416,114430
4618,495,141,119433,114442
4621,495,141,119457,114444
4623,496,141,119483,114449
4626,497,141,119500,114463
4628,498,141,119529,114468
4630,499,141,119553,114468
4633,500,141,119579,114498
4635,501,141,119604,114495
4638,501,141,119604,114513
4640,500,141,119651,114528
4643,499,141,119674,114528
4645,497,141,119709,114544
4647,497,141,119727,114553
4651,497,141,119755,114567
4653,497,141,119755,114579
4656,498,141,119812,114583
4658,498,141,119833,114598
4661,497,141,119833,114612
4663,496,141,119886,114606
4666,496,141,119922,114606
4668,497,141,119956,114649
4670,497,141,119976,114653
4673,497,142,120002,114660
4675,497,141,120002,114676
4678,497,141,120049,114682
4680,498,141,120070,114699
4683,498,142,120070,114706
4685,498,141,120118,114712
4687,499,141,120136,114712
4690,499,142,120173,114737
4692,499,141,120173,114732
4696,498,141,120195,114748
4698,499,142,120210,114748
4701,499,142,120226,114752
4703,500,142,120237,114751
4706,499,142,120233,114765
4708,497,142,120244,114756
4710,497,142,120241,114756
4713,497,142,120252,114760
4715,498,142,120252,114756
4718,501,141,120254,114759
4720,503,142,120254,114759
4723,505,142,120257,114755
4725,504,142,120257,114751
4727,502,142,120257,114756
4730,499,142,120240,114756
4732,497,142,120240,114753
4736,495,142,120225,114745
4738,495,142,120225,114734
4741,495,142,120224,114735
4743,495,142,120197,114735
4746,494,142,120188,114728
4748,494,142,120188,114712
4750,495,142,120180,114710
4753,495,142,120155,114710
4755,495,142,120150,114709
4758,495,142,120129,114702
4760,498,142,120129,114687
4763,500,142,120116,114683
4765,501,142,120104,114683
4767,501,142,120100,114688
4770,501,142,120100,114681
4772,501,142,120095,114681
4775,501,142,120095,114671
4777,501,142,120086,114676
4781,501,142,120078,114676
4783,502,142,120078,114669
4786,503,142,120077,114667
4788,504,142,120072,114667
4790,504,142,120081,114674
4793,506,142,120079,114671
4795,507,142,120083,114671
4798,509,142,120083,114675
4800,509,142,120081,114676
4803,508,142,120085,114676
4805,507,142,120085,114674
4807,506,142,120099,114675
4810,506,142,120097,114675
4812,508,142,120097,114678
4815,509,142,120107,114688
4817,509,142,120112,114686
4820,509,142,120114,114686
4823,509,142,120142,114689
4826,509,142,120142,114701
4828,510,142,120154,114701
4830,509,142,120168,114712
4833,509,142,120168,114720
4835,509,142,120179,114724
4838,508,142,120210,114724
4840,505,142,120222,114724
4843,502,142,120222,114738
4845,501,142,120242,114745
4847,500,142,120255,114745
4850,500,142,120292,114748
4852,500,142,120306,114760
4855,499,142,120306,114773
4857,497,142,120318,114782
4860,495,142,120362,114782
4862,494,142,120372,114790
4866,493,142,120372,114810
4868,493,142,120399,114815
4870,493,142,120413,114815
4873,494,142,120440,114826
4875,495,142,120459,114833
4878,495,142,120485,114842
4880,496,142,120514,114857
4883,496,142,120559,114861
4885,496,142,120580,114886
4887,496,142,120580,114894
4890,497,142,120612,114911
4892,497,142,120632,114911
4895,497,142,120659,114926
4897,498,142,120683,114936
4900,497,142,120710,114940
4902,496,142,120736,114958
4905,494,142,120791,114963
4908,494,142,120791,114989
4910,490,142,120821,114989
4913,485,142,120845,115002
4915,481,142,120871,115005
4918,472,142,120907,115016
4920,454,142,120930,115024
4923,445,142,120946,115043
4925,440,142,120983,115055
4927,435,142,121003,115059
4930,440,142,121035,115070
4932,452,142,121056,115076
4935,466,142,121067,115092
4937,493,142,121106,115093
4940,531,142,121131,115109
4942,623,142,121153,115117
4945,663,142,121183,115129
4947,708,142,121196,115125
4950,741,143,121214,115145
4953,770,142,121232,115149
4955,776,142,121254,115160
4958,760,143,121281,115171
4960,712,143,121295,115177
4963,687,143,121322,115191
4965,657,143,121346,115190
4967,623,143,121377,115206
4970,552,143,121392,115210
4972,520,143,121412,115218
4975,487,143,121431,115220
4977,464,143,121462,115238
4980,439,143,121474,115247
4982,411,143,121494,115254
4985,400,143,121516,115266
4987,393,143,121540,115267
4989,389,143,121554,115281
4993,391,143,121587,115286
4995,404,143,121605,115289
4998,417,142,121621,115296
5000,428,143,121638,115316
5003,442,143,121648,115316
5005,455,142,121667,115321
5007,465,143,121687,115320
5010,471,142,121704,115327
5012,471,142,121720,115346
5015,472,143,121743,115345
5017,473,142,121763,115353
5020,475,142,121782,115359
5022,478,143,121785,115360
5025,479,143,121800,115364
5027,481,143,121813,115372
5029,482,143,121833,115379
5032,484,142,121832,115383
5035,484,142,121850,115386
5038,484,143,121856,115389
5040,485,142,121870,115393
5043,485,142,121883,115389
5045,486,142,121894,115396
5047,486,143,121908,115406
5050,488,143,121920,115414
5052,490,143,121932,115427
5055,491,143,121949,115427
5057,492,142,121962,115429
5060,493,142,121974,115435
5062,494,143,121985,115438
5065,495,143,122009,115441
5067,495,143,122030,115455
5069,496,143,122033,115461
5072,497,143,122048,115466
5074,498,142,122060,115473
5078,499,142,122075,115475
5080,499,143,122092,115485
5083,499,142,122105,115480
5085,500,143,122119,115495
5087,501,142,122142,115495
5090,502,143,122148,115509
5092,503,143,122169,115503
5095,504,143,122183,115495
5097,505,143,122193,115519
5100,505,143,122211,115520
5102,505,143,122230,115526
5105,506,143,122239,115536
5107,506,143,122261,115535
5109,508,143,122267,115541
5112,508,143,122279,115544
5114,509,143,122275,115542
5117,509,143,122278,115549
5120,508,143,122267,115535
5123,507,143,122267,115526
5125,506,143,122220,115509
5127,506,143,122183,115509
5130,507,143,122138,115467
5132,508,143,122064,115423
5135,509,143,121979,115385
5137,510,143,121867,115340
5140,510,143,121754,115290
5142,511,143,121614,115230
5145,511,143,121614,115175
5147,512,143,121342,115113
5149,513,143,121210,115113
5152,514,143,121074,115008
5154,514,143,120947,114955
5157,514,143,120947,114903
5159,514,143,120704,114860
5163,514,143,120599,114860
5165,514,143,120502,114783
5167,514,143,120502,114746
5170,514,143,120300,114710
5172,514,143,120213,114710
5175,513,143,120136,114642
5177,513,143,120057,114607
5180,513,143,120057,114579
5182,512,143,119906,114557
5185,512,143,119838,114557
5187,511,143,119767,114498
5189,511,143,119767,114480
5192,511,143,119661,114458
5194,511,143,119601,114458
5197,512,143,119560,114435
5199,514,143,119514,114404
5202,514,143,119468,114398
5204,514,143,119468,114367
5207,511,143,119424,114356
5210,508,143,119348,114340
5212,506,143,119327,114340
5215,506,143,119307,114322
5217,505,143,119307,114319
5220,505,143,119277,114315
5222,504,143,119241,114315
5225,502,143,119225,114305
5227,498,143,119225,114287
5229,495,143,119214,114291
5232,494,143,119189,114284
5234,493,143,119189,114275
5237,494,143,119173,114282
5239,494,143,119180,114282
5242,493,143,119181,114278
5244,492,143,119181,114285
5246,492,143,119187,114290
5250,492,143,119195,114282
5252,492,143,119212,114282
5255,492,143,119212,114299
5257,492,143,119226,114299
5260,492,143,119242,114312
5262,493,143,119242,114319
5265,494,143,119254,114326
5267,495,143,119295,114326
5269,495,143,119311,114329
5272,495,143,119311,114351
5274,494,143,119324,114360
5277,494,143,119367,114360
5279,493,143,119383,114363
5282,493,143,119383,114377
5284,493,143,119423,114377
5286,494,143,119442,114392
5289,497,143,119442,114403
5292,497,143,119468,114411
5295,497,143,119508,114411
5297,496,143,119533,114420
5300,496,143,119533,114436
5302,496,143,119557,114451
5305,496,143,119597,114451
5307,496,143,119597,114468
5309,496,143,119631,114474
5312,497,143,119671,114493
5314,498,143,119671,114492
5317,498,143,119688,114494
5319,498,143,119710,114503
5322,498,144,119724,114503
5324,498,143,119783,114512
5326,499,144,119783,114527
5329,499,144,119793,114527
5331,499,143,119819,114535
5335,500,144,119819,114552
5337,501,144,119844,114564
5340,502,144,119860,114564
5342,503,144,119906,114563
5345,504,144,119906,114579
5347,504,144,119948,114579
5349,503,144,119948,114598
5352,503,144,119965,114604
5354,503,143,119991,114617
5357,503,144,120020,114626
5359,503,144,120037,114637
5362,504,144,120067,114637
5364,504,144,120094,114649
5366,505,144,120115,114655
5369,506,144,120150,114660
5371,508,144,120173,114670
5374,507,144,120220,114679
5377,507,144,120220,114696
5380,506,144,120236,114703
5382,506,144,120252,114703
5385,507,144,120277,114704
5387,507,144,120288,114713
5389,508,144,120310,114714
5392,507,144,120329,114721
5394,507,144,120331,114729
5397,507,144,120343,114734
5399,507,144,120351,114740
5402,508,144,120369,114734
5404,508,144,120374,114734
5406,507,144,120381,114732
5409,505,144,120376,114737
5411,504,144,120386,114733
5414,503,144,120379,114732
5416,503,144,120382,114728
5420,503,144,120380,114731
5422,503,144,120377,114728
5425,504,144,120367,114720
5427,504,144,120347,114712
5429,504,144,120342,114708
5432,505,144,120336,114704
5434,506,144,120326,114698
5437,506,144,120303,114693
5439,506,144,120299,114679
5442,506,144,120285,114679
5444,507,144,120268,114671
5446,506,144,120254,114665
5449,506,144,120250,114656
5451,505,144,120227,114658
5454,505,144,120217,114650
5456,505,144,120193,114639
5459,505,144,120174,114631
5462,508,144,120161,114624
5465,508,144,120159,114622
5467,509,144,120153,114617
5469,510,144,120142,114612
5472,512,144,120129,114613
5474,513,144,120120,114604
5477,513,144,120107,114599
5479,513,144,120095,114595
5482,512,144,120096,114589
5484,512,144,120097,114591
5486,512,144,120084,114587
5489,511,144,120096,114590
5491,511,144,120089,114589
5494,512,144,120082,114587
5496,515,144,120092,114591
5499,516,144,120095,114599
5501,516,144,120096,114596
5505,517,144,120095,114600
5507,518,144,120099,114591
5509,518,144,120100,114601
5512,518,144,120114,114602
5514,517,144,120123,114606
5517,515,144,120126,114619
5519,513,144,120136,114620
5522,511,144,120143,114621
5524,510,144,120149,114633
5526,510,144,120178,114633
5529,510,144,120186,114646
5531,509,144,120209,114647
5534,507,144,120221,114655
5536,506,144,120227,114667
5539,505,144,120251,114669
5541,504,144,120272,114681
5544,503,144,120290,114690
5547,502,144,120299,114686
5549,502,144,120323,114708
5552,501,144,120345,114707
5554,500,144,120356,114721
5557,500,144,120370,114730
5559,500,144,120397,114739
5562,500,144,120424,114735
5564,501,144,120434,114751
5566,502,144,120473,114762
5569,502,144,120492,114777
5571,501,144,120514,114788
5574,500,144,120538,114776
5576,500,144,120570,114802
5579,499,144,120601,114821
5581,499,144,120618,114826
5584,500,144,120642,114836
5586,500,144,120673,114847
5588,501,144,120695,114853
5592,501,144,120722,114872
5594,500,144,120751,114873
5597,497,144,120775,114886
5599,492,144,120806,114891
5602,486,144,120806,114903
5604,476,144,120840,114910
5606,468,144,120870,114910
5609,452,144,120897,114937
5611,447,144,120925,114945
5614,444,144,120957,114952
5616,445,144,120966,114957
5619,450,144,120996,114965
5621,474,144,121032,114980
5624,494,144,121032,114995
5626,535,144,121071,115005
5628,573,144,121099,115005
5632,665,144,121132,115026
5634,710,144,121147,115031
5637,742,144,121147,115036
5639,768,144,121203,115053
5642,771,144,121230,115053
5644,740,145,121252,115075
5646,716,145,121252,115083
5649,684,145,121302,115092
5651,661,145,121320,115092
5654,633,145,121351,115107
5656,577,145,121362,115116
5659,548,145,121362,115124
5661,510,145,121409,115136
5664,487,145,121435,115136
5666,447,145,121458,115154
5668,435,145,121458,115165
5671,420,145,121499,115175
5673,412,145,121521,115175
5677,405,145,121549,115177
5679,400,145,121573,115199
5682,400,145,121588,115210
5684,409,145,121588,115215
5686,421,145,121619,115230
5689,435,145,121660,115241
5691,443,145,121680,115241
5694,461,145,121701,115249
5696,467,145,121701,115258
5699,473,145,121730,115272
5701,475,145,121768,115272
5704,477,145,121798,115275
5706,480,145,121798,115294
5708,482,145,121813,115302
5711,483,145,121856,115313
5713,486,145,121856,115316
5716,488,145,121887,115323
5719,489,145,121905,115323
5722,490,145,121921,115334
5724,492,145,121935,115340
5726,493,145,121957,115340
5729,495,145,121957,115352
5731,497,145,121979,115363
5734,498,145,122006,115368
5736,500,145,122006,115375
5739,500,145,122027,115374
5741,501,145,122056,115374
5744,501,145,122075,115388
5746,502,145,122075,115401
5748,502,145,122085,115400
5751,502,145,122115,115400
5753,502,145,122138,115406
5756,503,145,122150,115418
5758,503,145,122150,115428
5762,503,145,122183,115432
5764,504,145,122197,115432
5766,504,145,122215,115438
5769,505,145,122215,115444
5771,506,145,122224,115450
5774,506,145,122252,115450
5776,506,145,122281,115462
5779,507,145,122281,115474
5781,507,145,122310,115474
5784,508,145,122331,115497
5786,509,145,122331,115502
5788,510,145,122347,115509
5791,510,145,122379,115509
5793,511,145,122393,115513
5796,513,145,122393,115530
5798,514,145,122416,115534
5801,514,145,122418,115534
5804,514,146,122426,115533
5806,514,145,122425,115522
5809,513,146,122425,115519
5811,513,145,122411,115505
5814,514,145,122332,115505
5816,515,146,122280,115478
5819,516,145,122280,115413
5821,517,145,122199,115369
5824,518,146,122113,115369
5826,519,146,121867,115324
5828,519,145,121724,115272
5831,520,145,121724,115139
5833,521,146,121588,115084
5836,522,146,121277,115084
5838,522,145,121142,115026
5841,522,146,121142,114917
5843,521,146,120999,114862
5846,521,146,120879,114862
5849,521,145,120753,114825
5851,521,146,120648,114779
5854,522,146,120549,114732
5856,522,146,120453,114698
5859,521,146,120269,114663
5861,520,146,120176,114631
5864,520,146,120176,114563
5866,519,146,120107,114531
5868,520,146,120015,114531
5871,519,146,119958,114513
5873,519,146,119890,114480
5876,519,146,119826,114462
5878,520,146,119772,114440
5881,519,146,119668,114421
5883,518,146,119624,114403
5885,518,146,119624,114371
5889,517,146,119583,114371
5891,515,146,119538,114353
5894,514,146,119512,114339
5896,513,146,119475,114332
5899,512,146,119448,114319
5901,512,146,119425,114304
5904,510,146,119397,114307
5906,508,146,119378,114294
5908,507,146,119355,114286
5911,507,146,119335,114289
5913,506,146,119327,114273
5916,505,146,119323,114279
5918,504,146,119320,114275
5921,503,146,119323,114270
5923,503,146,119318,114279
5925,502,146,119321,114268
5928,502,146,119315,114274
5931,502,146,119315,114279
5934,501,146,119324,114280
5936,500,146,119343,114287
5939,499,146,119352,114287
5941,498,146,119364,114305
5944,498,146,119376,114306
5946,499,146,119394,114312
5948,499,146,119402,114314
5951,499,146,119433,114319
5953,499,146,119450,114333
5956,499,146,119467,114346
5958,499,146,119483,114351
5961,499,146,119514,114360
5963,500,146,119526,114373
5965,499,146,119547,114380
5968,499,146,119572,114389
5970,498,146,119605,114398
5974,498,146,119628,114404
5976,499,146,119662,114424
5979,499,146,119681,114437
5981,500,146,119704,114439
5984,501,146,119738,114449
5986,502,146,119759,114463
5988,503,146,119781,114475
5991,503,146,119820,114485
5993,503,146,119847,114490
5996,503,146,119868,114504
5998,504,146,119903,114524
6001,505,146,119919,114526
6003,507,146,119945,114534
6005,508,146,119984,114549
6008,508,146,120003,114556
6010,508,146,120030,114575
6013,506,146,120060,114578
6016,505,146,120082,114593
6019,505,146,120110,114594
6021,505,146,120140,114611
6024,505,146,120157,114625
6026,506,146,120186,114637
6028,507,146,120217,114654
6031,507,146,120243,114655
6033,507,146,120276,114672
6036,508,146,120294,114684
6038,509,146,120315,114695
6041,510,146,120353,114697
6043,511,146,120376,114708
6045,511,146,120406,114724
6048,511,146,120428,114737
6050,510,146,120455,114743
6053,509,146,120486,114756
6055,509,146,120514,114767
6059,510,146,120532,114776
6061,510,146,120565,114784
6064,511,146,120584,114798
6066,511,146,120610,114799
6068,512,146,120627,114808
6071,512,146,120643,114812
6073,512,146,120653,114816
6076,512,146,120683,114828
6078,512,146,120694,114824
6081,512,146,120694,114833
6083,512,146,120706,114836
6085,512,146,120708,114836
6088,511,146,120721,114844
6090,511,146,120724,114838
6093,511,146,120726,114832
6095,511,146,120723,114839
6098,511,146,120723,114837
6100,510,146,120723,114828
6104,510,146,120723,114833
6106,511,146,120712,114822
6108,512,146,120695,114822
6111,513,146,120694,114813
6113,514,146,120687,114802
6116,513,146,120687,114805
6118,512,146,120651,114798
6121,511,146,120641,114798
6123,509,146,120639,114790
6125,509,146,120620,114771
6128,510,146,120596,114763
6130,510,146,120596,114759
6133,512,146,120559,114744
6135,513,146,120543,114738
6138,513,146,120543,114736
6140,513,146,120512,114726
6144,513,146,120497,114726
6146,513,146,120484,114721
6148,514,146,120484,114714
6151,514,146,120463,114705
6153,514,146,120451,114705
6156,515,146,120442,114702
6158,517,146,120433,114696
6161,518,146,120411,114691
6163,520,146,120411,114684
6165,522,146,120407,114685
6168,522,146,120402,114677
6170,523,146,120392,114677
6173,522,146,120392,114669
6175,522,146,120392,114681
6178,521,146,120390,114680
6180,520,146,120393,114680
6183,518,146,120400,114672
6185,515,146,120399,114677
6188,513,146,120399,114675
6191,512,146,120404,114680
6193,511,146,120411,114680
6196,511,146,120422,114685
6198,509,146,120422,114698
6201,507,146,120427,114696
6203,507,146,120433,114696
6205,507,146,120461,114705
6208,507,146,120472,114705
6210,507,146,120472,114718
6213,506,146,120488,114722
6215,505,146,120506,114722
6218,503,146,120516,114729
6220,501,146,120516,114738
6223,500,146,120533,114749
6225,500,146,120567,114749
6227,499,146,120595,114758
6231,500,146,120599,114760
6233,500,146,120627,114760
6236,502,146,120627,114782
6238,503,146,120637,114789
6241,504,146,120676,114789
6243,504,146,120676,114806
6245,505,146,120705,114816
6248,505,146,120733,114816
6250,505,146,120738,114823
6253,504,146,120784,114846
6255,504,146,120802,114846
6258,503,146,120802,114862
6260,500,146,120838,114870
6263,497,146,120880,114870
6265,488,146,120880,114895
6267,478,146,120918,114902
6270,470,146,120947,114902
6273,462,146,120980,114910
6276,451,146,120980,114926
6278,448,146,121029,114926
6281,447,146,121029,114951
6283,453,146,121027,114958
6285,461,146,121088,114958
6288,485,146,121088,114980
6290,520,146,121127,114985
6293,555,146,121161,114985
6295,594,146,121188,114998
6298,684,146,121188,115010
6300,732,146,121213,115021
6303,760,146,121233,115021
6305,778,146,121288,115029
6307,779,146,121298,115039
6310,744,146,121298,115060
6312,711,146,121328,115072
6316,687,146,121371,115072
6318,661,147,121388,115081
6321,630,146,121388,115092
6323,561,147,121418,115104
6325,532,146,121443,115104
6328,501,147,121464,115116
6330,479,147,121485,115126
6333,457,146,121511,115135
6335,426,146,121534,115138
6338,414,146,121581,115148
6340,406,146,121600,115157
6343,400,146,121600,115174
6345,397,146,121622,115183
6347,401,146,121631,115183
6350,409,146,121663,115183
6352,420,146,121675,115193
6355,431,146,121691,115204
6358,453,146,121716,115214
6361,462,146,121761,115221
6363,469,146,121777,115238
6365,474,146,121777,115240
6368,477,146,121795,115240
6370,480,146,121804,115246
6373,483,146,121834,115252
6375,486,146,121853,115255
6378,486,146,121863,115269
6380,487,146,121879,115271
6383,488,146,121905,115283
6385,489,146,121914,115286
6387,490,146,121929,115287
6390,491,146,121944,115295
6392,493,146,121956,115304
6395,495,146,121966,115308
6397,496,146,121997,115306
6401,498,146,122001,115316
6403,500,146,122022,115318
6405,500,146,122036,115326
6408,501,146,122041,115332
6410,501,146,122063,115331
6413,501,146,122080,115340
6415,502,146,122088,115358
6418,503,146,122109,115350
6420,505,146,122118,115366
6423,506,146,122133,115367
6425,507,146,122152,115367
6427,507,146,122163,115379
6430,506,146,122178,115382
6432,506,146,122195,115384
6435,505,146,122201,115399
6437,505,146,122207,115396
6440,505,146,122232,115399
6443,507,146,122236,115407
6445,508,146,122249,115420
6448,509,146,122274,115420
6450,508,146,122274,115424
6453,508,146,122296,115430
6455,508,146,122313,115424
6458,509,146,122320,115437
6460,510,146,122333,115438
6463,511,146,122341,115445
6465,514,146,122340,115450
6467,514,146,122350,115453
6470,514,146,122337,115443
6472,514,146,122343,115438
6475,515,146,122300,115423
6477,515,146,122276,115402
6480,516,146,122237,115379
6482,518,146,122172,115344
6484,518,146,122097,115312
6488,519,146,121996,115267
6490,520,146,121884,115218
6493,521,146,121745,115162
6495,521,146,121605,115108
6498,522,146,121464,115039
6500,522,146,121334,114984
6503,523,146,121187,114930
6505,525,146,121048,114873
6507,525,146,120928,114827
6510,524,146,120801,114782
6512,523,146,120685,114726
6515,523,146,120583,114685
6517,522,146,120477,114646
6520,521,146,120368,114606
6522,520,146,120277,114573
6524,520,146,120193,114539
6528,520,146,120107,114505
6530,520,146,120023,114471
6533,520,146,119948,114445
6535,519,146,119882,114418
6538,518,146,119812,114391
6540,516,146,119757,114366
6543,515,146,119691,114345
6545,515,146,119639,114327
6547,515,147,119580,114296
6550,516,147,119529,114282
6552,516,146,119486,114270
6555,515,146,119441,114252
6557,514,146,119406,114237
6560,513,146,119372,114222
6562,512,146,119344,114211
6564,512,146,119307,114187
6567,511,146,119285,114186
6569,510,146,119266,114168
6573,509,146,119239,114166
6575,508,146,119218,114164
6578,508,147,119206,114150
6580,507,147,119196,114151
6583,506,146,119196,114142
6585,505,146,119173,114148
6587,504,147,119177,114148
6590,502,146,119181,114148
6592,501,147,119168,114140
6595,501,147,119168,114145
6597,500,146,119176,114149
6600,500,146,119173,114149
6602,499,146,119188,114155
6604,499,147,119194,114160
6607,498,146,119205,114156
6609,498,146,119205,114164
6612,498,146,119225,114170
6615,497,147,119243,114174
6618,497,147,119243,114176
6620,497,147,119277,114186
6623,497,147,119297,114186
6625,497,146,119317,114205
6627,497,147,119333,114210
6630,498,146,119355,114221
6632,499,147,119355,114228
6635,501,147,119390,114232
6637,502,147,119415,114241
6640,502,146,119415,114256
6642,502,147,119453,114265
6644,502,147,119484,114265
6647,502,147,119511,114281
6649,501,147,119511,114288
6652,502,147,119532,114303
6654,503,147,119580,114303
6658,504,147,119607,114311
6660,505,147,119625,114326
6663,506,147,119646,114336
6665,506,147,119666,114341
6667,506,147,119678,114341
6670,505,147,119704,114353
6672,505,147,119704,114358
6675,506,147,119723,114363
6677,506,147,119757,114363
6680,507,147,119776,114378
6682,508,147,119776,114385
6684,509,147,119795,114401
6687,509,147,119839,114401
6689,510,147,119856,114407
6692,509,147,119873,114418
6694,509,147,119873,114430
6697,508,147,119895,114442
6700,508,147,119934,114442
6703,509,147,119960,114447
6705,510,147,119960,114455
6707,509,147,119982,114466
6710,509,147,120013,114466
6712,509,147,120046,114474
6715,509,147,120061,114483
6717,509,147,120061,114492
6720,509,147,120104,114507
6722,510,147,120128,114507
6724,510,147,120152,114513
6727,510,147,120163,114523
6729,510,147,120181,114523
6732,511,147,120181,114538
6734,511,147,120200,114545
6737,511,147,120224,114545
6739,511,147,120224,114553
6743,512,147,120244,114552
6745,512,147,120262,114552
6747,512,147,120265,114562
6750,513,147,120265,114560
6752,512,147,120279,114560
6755,512,147,120289,114560
6757,512,147,120298,114565
6760,511,147,120298,114572
6762,511,147,120288,114572
6764,510,147,120292,114573
6767,510,147,120292,114571
6769,510,147,120290,114561
6772,510,147,120272,114561
6774,510,147,120268,114560
6777,510,147,120268,114547
6779,511,147,120261,114544
6782,512,147,120240,114544
6785,511,147,120230,114535
6787,511,147,120215,114536
6790,509,147,120215,114521
6792,508,147,120200,114523
6795,507,147,120171,114523
6797,507,147,120163,114512
6800,507,147,120163,114497
6802,507,147,120152,114498
6804,508,147,120145,114498
6807,508,147,120119,114491
6809,509,147,120107,114493
6812,510,147,120107,114478
6814,512,147,120109,114478
6817,513,147,120078,114474
6819,513,147,120079,114471
6822,513,147,120079,114474
6824,511,147,120072,114470
6827,510,147,120071,114470
6830,509,147,120072,114467
6832,508,147,120054,114459
6835,508,147,120057,114463
6837,509,147,120054,114463
6840,510,147,120048,114464
6842,511,147,120057,114469
6844,512,147,120057,114463
6847,514,147,120064,114463
6849,516,147,120059,114460
6852,517,147,120070,114461
6854,518,147,120078,114471
6857,518,147,120074,114469
6859,518,147,120077,114474
6862,517,147,120087,114468
6864,517,147,120098,114475
6866,519,147,120100,114479
6870,520,147,120114,114488
6872,521,147,120134,114487
6875,522,147,120145,114498
6877,524,147,120158,114501
6880,523,147,120169,114510
6882,523,147,120175,114512
6884,523,147,120191,114519
6887,523,147,120201,114527
6889,521,147,120225,114529
6892,519,147,120237,114545
6894,514,147,120251,114542
6897,512,147,120277,114549
6899,511,147,120294,114559
6902,511,147,120314,114567
6904,510,147,120336,114580
6906,509,147,120349,114583
6909,509,147,120374,114594
6912,508,147,120381,114599
6915,508,147,120418,114604
6917,507,147,120423,114616
6920,506,146,120444,114625
6922,505,147,120468,114626
6924,504,147,120499,114648
6927,503,146,120527,114656
6929,503,146,120550,114666
6932,502,147,120569,114670
6934,502,147,120593,114690
6937,502,146,120610,114698
6939,502,147,120638,114708
6942,503,146,120664,114717
6944,503,147,120690,114719
6946,503,147,120711,114739
6949,503,147,120738,114748
6951,504,146,120766,114756
6955,505,146,120789,114762
6957,506,146,120808,114774
6960,506,146,120829,114785
6962,506,147,120859,114792
6964,505,146,120875,114796
6967,504,146,120903,114809
6969,503,146,120924,114823
6972,499,146,120955,114822
6974,493,146,120974,114840
6977,484,146,121001,114844
6979,469,146,121022,114858
6982,459,146,121042,114861
6984,452,146,121058,114873
6986,447,146,121091,114884
6989,444,146,121109,114899
6991,449,146,121125,114906
6994,459,146,121156,114906
6996,472,146,121171,114918
7000,500,146,121194,114932
7002,543,146,121217,114945
7004,596,146,121239,114944
7007,687,146,121265,114956
7009,725,146,121285,114962
7012,756,146,121300,114973
7014,782,146,121321,114958
7017,785,146,121341,114988
7019,760,147,121356,114991
7022,734,147,121383,115005
7024,706,147,121396,115013
7026,675,147,121417,115016
7029,633,147,121435,115025
7031,572,147,121463,115041
7034,539,147,121478,115041
7036,500,146,121493,115050
7040,461,147,121506,115051
7042,444,147,121530,115054
7044,425,146,121538,115047
7047,406,146,121554,115072
7049,400,146,121571,115074
7052,398,146,121600,115077
7054,400,146,121601,115082
7057,407,146,121614,115085
7059,429,146,121634,115096
7062,441,146,121646,115102
7064,449,146,121670,115109
7066,459,146,121680,115115
7069,468,146,121696,115124
7071,472,146,121702,115122
7074,475,146,121702,115121
7076,478,146,121721,115131
7079,480,146,121740,115131
7081,483,146,121760,115144
7084,485,146,121765,115140
7087,488,146,121769,115147
7089,489,146,121769,115151
7092,491,146,121789,115150
7094,493,146,121785,115155
7097,493,146,121785,115154
7099,494,146,121809,115160
7102,494,146,121819,115160
7104,493,146,121833,115172
7106,493,146,121834,115164
7109,494,146,121846,115170
7111,494,146,121846,115172
7114,496,146,121860,115178
7116,497,146,121874,115185
7119,498,146,121874,115188
7121,499,146,121888,115186
7123,500,146,121896,115186
7127,501,146,121913,115204
7129,501,146,121913,115198
7132,502,146,121924,115210
7134,503,146,121933,115210
7137,504,146,121951,115205
7139,506,146,121962,115214
7142,508,146,121963,115229
7144,510,146,121987,115223
7146,510,146,121985,115223
7149,509,146,122001,115231
7151,507,146,122001,115238
7154,506,146,122016,115242
7156,506,146,122034,115242
7159,506,146,122055,115249
7161,507,146,122068,115252
7163,508,146,122068,115255
7166,509,146,122082,115270
7169,511,146,122078,115270
7172,512,146,122080,115267
7174,514,146,122080,115258
7177,513,146,122074,115247
7179,513,146,122037,115247
7182,512,146,122001,115236
7184,514,146,121948,115193
7186,515,146,121948,115159
7189,516,146,121800,115159
7191,516,146,121684,115118
7194,516,146,121574,115072
7196,516,146,121574,114969
7199,516,146,121323,114907
7201,516,146,121188,114907
7203,516,146,121062,114857
7206,518,146,120930,114750
7208,518,146,120800,114750
7212,519,146,120800,114650
7214,519,145,120683,114602
7217,520,146,120458,114602
7219,520,146,120458,114516
7222,520,146,120356,114479
7224,521,145,120154,114479
7226,521,145,120067,114440
7229,521,146,119975,114372
7231,521,146,119890,114372
7234,521,145,119890,114306
7236,520,145,119808,114285
7239,519,145,119668,114285
7241,518,145,119668,114227
7243,518,146,119598,114200
7246,519,145,119474,114200
7248,519,145,119418,114177
7251,520,145,119418,114134
7254,520,145,119313,114134
7257,519,146,119313,114094
7259,518,145,119255,114079
7262,518,146,119163,114079
7264,516,145,119163,114050
7266,516,145,119142,114035
7269,515,146,119063,114035
7271,513,145,119063,114010
7274,510,145,119038,114001
7276,509,145,119008,113994
7279,508,145,118991,113994
7281,508,145,118965,113990
7283,507,145,118965,113981
7286,506,146,118932,113981
7288,505,145,118932,113965
7291,504,145,118923,113966
7293,503,145,118921,113957
7297,503,145,118910,113957
7299,503,145,118912,113961
7302,501,145,118912,113967
7304,501,145,118923,113967
7306,501,145,118923,113967
7309,501,145,118931,113968
7311,501,145,118931,113977
7314,501,145,118953,113981
7316,500,145,118962,113986
7319,500,145,118970,113986
7321,499,145,118983,113995
7323,499,145,119003,113999
7326,500,145,119017,114006
7328,503,145,119033,114006
7331,504,145,119067,114017
7333,505,145,119067,114036
7336,504,145,119080,114036
7339,502,145,119098,114035
7342,501,145,119126,114045
7344,501,145,119130,114052
7346,501,145,119149,114058
7349,501,145,119176,114066
7351,501,145,119190,114071
7354,500,145,119217,114074
7356,500,145,119231,114085
7359,500,145,119255,114096
7361,502,145,119258,114098
7363,502,145,119276,114106
7366,503,145,119299,114119
7368,504,145,119316,114123
7371,504,145,119332,114130
7373,504,145,119354,114131
7376,504,145,119368,114138
7378,505,145,119390,114139
7382,505,145,119402,114143
7384,506,145,119419,114151
7386,506,145,119421,114160
7389,506,145,119438,114160
7391,506,145,119452,114175
7394,506,145,119469,114181
7396,506,145,119491,114179
7399,507,145,119513,114190
7401,507,145,119528,114193
7403,507,145,119539,114205
7406,508,145,119555,114205
7408,508,145,119573,114217
7411,508,145,119581,114217
7413,508,145,119591,114221
7416,509,145,119613,114236
7418,509,145,119629,114242
7421,509,144,119645,114252
7424,509,144,119668,114255
7426,510,144,119684,114257
7429,510,144,119699,114261
7431,511,144,119719,114272
7434,511,144,119732,114273
7436,511,144,119748,114285
7439,511,144,119756,114284
7441,511,144,119764,114297
7443,510,144,119785,114295
7446,511,144,119800,114303
7448,511,144,119801,114306
7451,512,144,119819,114307
7453,512,144,119830,114316
7456,511,145,119850,114315
7458,510,144,119845,114317
7461,510,144,119846,114317
7463,510,144,119852,114316
7465,510,144,119856,114324
7469,510,144,119851,114321
7471,509,144,119851,114313
7474,509,144,119853,114312
7476,509,144,119847,114318
7479,510,144,119840,114312
7481,509,144,119842,114307
7483,509,144,119835,114304
7486,508,144,119829,114309
7488,507,144,119821,114306
7491,506,144,119809,114293
7493,506,144,119804,114296
7496,508,144,119797,114288
7498,509,144,119790,114284
7501,509,144,119793,114283
7503,509,144,119781,114273
7505,509,144,119776,114270
7508,508,144,119761,114276
7511,508,144,119755,114264
7514,507,144,119748,114266
7516,505,144,119743,114269
7519,505,144,119739,114259
7521,505,144,119731,114264
7523,506,144,119736,114251
7526,507,144,119719,114258
7528,507,144,119714,114245
7531,509,144,119711,114252
7533,510,144,119717,114244
7536,510,144,119715,114252
7538,510,144,119706,114247
7541,509,144,119704,114236
7543,509,144,119702,114239
7545,509,144,119704,114239
7548,509,144,119710,114243
7550,509,144,119706,114237
7554,510,144,119711,114234
7556,512,144,119708,114237
7559,512,144,119708,114238
7561,514,144,119715,114243
7563,515,144,119719,114243
7566,515,144,119735,114249
7568,514,144,119738,114248
7571,514,144,119744,114248
7573,514,144,119743,114256
7576,514,144,119754,114260
7578,515,144,119767,114260
7581,515,144,119767,114266
7583,515,144,119776,114273
7585,515,144,119785,114273
7588,515,144,119806,114280
7590,517,144,119814,114274
7593,517,144,119814,114281
7596,518,144,119826,114289
7599,518,144,119836,114289
7601,519,144,119852,114296
7603,518,144,119852,114299
7606,517,144,119877,114308
7608,516,144,119886,114308
7611,514,144,119905,114327
7613,512,144,119926,114327
7616,512,144,119926,114327
7618,511,144,119955,114339
7621,511,144,119974,114339
7623,509,144,119981,114357
7625,509,144,119981,114361
7628,508,144,120016,114371
7630,508,144,120035,114371
7633,507,144,120053,114372
7635,505,144,120074,114384
7639,505,144,120083,114399
7641,502,144,120083,114403
7643,501,143,120096,114410
7646,500,144,120138,114419
7648,499,144,120152,114419
7651,499,144,120175,114426
7653,499,144,120175,114437
7656,499,144,120194,114446
7658,499,144,120231,114446
7661,499,143,120249,114451
7663,499,144,120249,114455
7665,499,143,120272,114463
7668,500,144,120300,114474
7670,499,143,120300,114484
7673,500,144,120339,114488
7675,500,144,120358,114488
7678,501,144,120383,114488
7681,503,144,120383,114510
7683,504,144,120393,114511
7686,504,144,120423,114515
7688,502,143,120442,114515
7691,491,143,120442,114528
7693,485,144,120476,114528
7696,474,143,120502,114545
7698,456,144,120502,114557
7701,448,143,120513,114564
7703,445,143,120551,114564
7705,442,143,120564,114567
7708,447,143,120564,114574
7710,460,143,120590,114587
7713,475,143,120607,114587
7715,501,143,120624,114584
7718,563,143,120624,114594
7720,596,143,120655,114594
7723,645,143,120669,114603
7726,725,144,120669,114607
7728,766,143,120677,114615
7731,782,144,120704,114615
7733,785,144,120718,114618
7736,759,144,120718,114627
7738,729,144,120727,114632
7741,706,144,120749,114632
7743,660,144,120749,114645
7745,618,144,120773,114646
7748,568,144,120783,114654
7750,526,144,120783,114659
7753,488,144,120806,114666
7755,458,144,120817,114671
7758,440,144,120832,114671
7760,426,144,120871,114679
7762,405,144,120871,114690
7766,400,144,120890,114690
7768,397,144,120910,114702
7771,400,143,120910,114713
7773,410,143,120927,114713
7776,422,144,120955,114721
7778,435,143,120979,114733
7781,454,143,120979,114736
7783,463,143,120997,114745
7785,468,144,121005,114745
7788,473,143,121016,114744
7790,476,143,121035,114756
7793,478,143,121050,114754
7795,482,143,121066,114768
7798,484,143,121100,114773
7800,486,143,121108,114778
7802,487,143,121108,114787
7805,489,143,121120,114790
7808,489,143,121133,114790
7811,489,143,121156,114803
7813,489,143,121160,114803
7816,488,143,121171,114811
7818,489,143,121201,114822
7821,489,143,121227,114830
7823,490,143,121243,114830
7825,491,143,121243,114848
7828,492,143,121257,114848
7830,495,143,121269,114851
7833,496,143,121284,114860
7835,497,143,121291,114859
7838,498,143,121311,114868
7840,499,143,121329,114866
7842,499,143,121341,114874
7845,500,143,121347,114886
7847,500,143,121367,114887
7851,501,143,121388,114892
7853,503,143,121396,114897
7856,503,143,121413,114909
7858,503,143,121427,114919
7861,503,143,121454,114921
7863,505,143,121465,114925
7865,506,143,121480,114932
7868,507,143,121498,114945
7870,508,143,121511,114948
7873,508,143,121530,114964
7875,509,143,121530,114961
7878,508,143,121543,114969
7880,508,143,121572,114971
7882,508,143,121591,114979
7885,509,143,121604,114988
7887,510,143,121610,114989
7890,511,143,121600,114986
7892,512,143,121601,114987
7896,513,143,121596,114978
7898,514,143,121578,114973
7901,514,143,121544,114959
7903,515,143,121510,114930
7905,515,143,121452,114900
7908,516,143,121389,114870
7910,517,143,121303,114827
7913,518,143,121196,114777
7915,518,143,121096,114737
7918,517,143,120986,114689
7920,517,143,120864,114637
7922,517,143,120741,114591
7925,516,143,120615,114546
7927,516,143,120496,114496
7930,516,143,120399,114444
7932,516,143,120288,114402
7936,517,143,120175,114359
7938,519,143,120081,114327
7941,521,143,119975,114278
7943,522,143,119876,114243
7945,522,143,119792,114200
7948,521,143,119707,114174
7950,519,143,119613,114144
7953,518,143,119547,114111
7955,517,143,119466,114079
7958,516,143,119395,114052
7960,516,143,119314,114023
7962,517,143,119253,113998
7965,517,143,119188,113970
7967,516,143,119128,113956
7970,516,143,119072,113921
7972,515,143,119019,113899
7975,515,143,118963,113885
7977,514,143,118915,113863
7981,514,143,118874,113840
7983,514,143,118838,113833
7985,514,143,118795,113812
7988,515,143,118754,113803
7990,515,143,118714,113793
7993,514,143,118691,113777
7995,511,143,118664,113766
7998,510,143,118636,113753
8000,508,143,118620,113742
8002,507,143,118604,113733
8005,507,143,118585,113734
8007,506,143,118567,113728
8010,504,143,118561,113726
8012,503,143,118553,113715
8015,503,143,118556,113716
8017,502,143,118546,113715
8020,502,143,118538,113708
8023,501,143,118547,113714
8025,501,143,118548,113709
8028,500,143,118550,113714
8030,500,143,118545,113713
8033,499,143,118557,113714
8035,499,143,118563,113714
8038,499,143,118563,113719
8040,498,143,118581,113721
8042,498,143,118588,113721
8045,497,143,118611,113740
8047,497,143,118620,113735
8050,497,143,118638,113748
8052,497,143,118650,113750
8055,498,143,118657,113756
8057,498,143,118679,113761
8060,498,143,118679,113767
8062,498,143,118711,113778
8065,498,143,118728,113778
8068,498,143,118746,113791
8070,499,143,118759,113794
8073,500,143,118759,113803
8075,501,143,118783,113805
8078,502,143,118804,113805
8080,503,143,118822,113817
8082,503,143,118822,113821
8085,504,143,118849,113827
8087,504,143,118866,113827
8090,504,143,118885,113843
8092,505,143,118896,113848
8095,505,143,118896,113851
8097,505,143,118934,113858
8100,506,143,118947,113858
8102,507,143,118963,113876
8104,507,143,118963,113882
8108,507,143,118996,113879
8110,507,143,119004,113879
8113,507,143,119020,113890
8115,508,143,119037,113892
8118,508,143,119044,113908
8120,509,143,119044,113909
8122,509,143,119061,113919
8125,508,143,119094,113924
8127,507,143,119111,113924
8130,507,143,119130,113938
8132,507,143,119130,113943
8135,507,143,119142,113960
8137,508,143,119180,113960
8140,508,143,119201,113964
8142,508,143,119201,113970
8144,508,143,119206,113981
8147,508,143,119244,113984
8150,508,143,119244,113989
8153,507,143,119270,113993
8155,507,143,119284,113993
8158,507,143,119299,114000
8160,506,143,119299,114008
8162,506,143,119313,114019
8165,506,143,119330,114019
8167,506,143,119335,114019
8170,507,143,119335,114027
8172,507,143,119349,114027
8175,508,143,119361,114028
8177,508,143,119361,114030
8180,508,143,119362,114032
8182,508,143,119364,114032
8184,508,143,119370,114025
8187,508,143,119367,114020
8189,509,143,119359,114020
8193,511,143,119359,114024
8195,511,143,119355,114024
8198,512,143,119351,114024
8200,511,143,119351,114018
8202,510,143,119357,114014
8205,509,143,119330,114014
8207,508,143,119330,114015
8210,507,143,119292,114000
8212,506,143,119318,114000
8215,505,143,119318,113999
8217,505,143,119312,113989
8220,506,143,119295,113989
8222,507,143,119295,113985
8224,507,143,119287,113980
8227,508,143,119263,113980
8229,507,143,119264,113974
8232,507,143,119264,113971
8235,506,143,119254,113968
8238,506,143,119246,113968
8240,506,144,119238,113965
8242,507,143,119238,113964
8245,508,144,119224,113964
8247,509,143,119228,113966
8250,510,143,119228,113960
8252,509,143,119220,113957
8255,509,143,119218,113957
8257,509,143,119214,113952
8260,509,143,119214,113960
8262,510,143,119223,113964
8264,511,143,119217,113964
8267,511,143,119225,113960
8269,511,143,119230,113963
8272,512,143,119230,113966
8274,513,143,119232,113966
8278,514,143,119236,113965
8280,514,143,119234,113969
8282,515,144,119234,113965
8285,516,143,119247,113972
8287,518,143,119247,113972
8290,519,144,119257,113973
8292,520,143,119260,113978
8295,522,144,119273,113985
8297,522,144,119288,113987
8300,522,144,119309,113987
8302,522,144,119309,113998
8304,521,144,119320,113998
8307,520,144,119330,114002
8309,519,144,119348,114009
8312,517,143,119358,114018
8314,514,143,119387,114019
8317,512,144,119390,114029
8320,512,144,119405,114037
8322,512,144,119421,114037
8325,511,144,119437,114044
8327,509,144,119449,114060
8330,508,144,119470,114066
8332,505,144,119498,114065
8335,503,144,119505,114075
8337,500,144,119531,114087
8340,499,144,119552,114090
8342,499,144,119569,114091
8344,500,144,119575,114102
8347,500,144,119601,114109
8349,500,144,119618,114125
8352,500,144,119643,114135
8354,499,144,119660,114136
8357,499,143,119694,114148
8359,499,144,119701,114156
8361,499,143,119735,114171
8365,500,144,119758,114183
8367,500,144,119780,114187
8370,500,144,119799,114199
8372,501,144,119827,114203
8375,502,144,119856,114219
8377,502,144,119873,114221
8380,502,144,119895,114244
8382,502,144,119916,114236
8384,501,143,119935,114250
8387,501,144,119955,114260
8389,499,144,119984,114268
8392,494,144,120013,114277
8394,489,144,120035,114291
8397,479,143,120056,114301
8399,466,143,120076,114316
8401,456,143,120103,114317
8404,445,143,120126,114327
8407,443,143,120147,114344
8410,443,144,120173,114345
8412,449,144,120202,114355
8415,462,143,120220,114361
8417,496,143,120243,114371
8420,531,143,120255,114384
8422,576,144,120292,114393
8424,624,144,120314,114402
8427,680,144,120327,114412
8429,730,144,120361,114421
8432,767,144,120380,114432
8434,781,144,120391,114440
8437,771,144,120418,114448
8439,749,144,120433,114460
8441,723,144,120465,114465
8444,668,144,120474,114467
8446,640,144,120491,114492
8450,610,144,120512,114492
8452,566,144,120532,114494
8455,523,144,120557,114507
8457,474,144,120574,114517
8460,451,144,120594,114523
8462,432,144,120614,114521
8464,417,144,120630,114538
8467,405,144,120643,114542
8469,398,144,120665,114556
8472,395,144,120675,114555
8474,402,144,120688,114562
8477,409,144,120708,114565
8479,431,144,120727,114579
8481,444,144,120737,114583
8484,453,144,120756,114587
8486,463,144,120763,114591
8489,471,144,120777,114567
8492,474,144,120793,114598
8495,476,144,120805,114602
8497,477,144,120814,114603
8500,478,144,120817,114609
8502,480,144,120828,114615
8504,482,144,120839,114611
8507,483,144,120852,114614
8509,484,144,120858,114613
8512,486,144,120859,114623
8514,487,144,120870,114622
8517,488,144,120870,114622
8519,489,144,120879,114618
8521,490,144,120884,114618
8524,493,144,120895,114635
8526,494,144,120909,114627
8529,495,144,120917,114639
8531,496,144,120923,114636
8535,497,144,120941,114634
8537,497,144,120945,114642
8540,497,144,120945,114658
8542,497,144,120960,114654
8544,497,144,120970,114654
8547,499,144,120983,114659
8549,500,144,120988,114656
8552,501,144,120988,114668
8554,501,144,121005,114663
8557,502,144,121017,114663
8559,503,144,121026,114673
8561,504,144,121026,114678
8564,505,144,121037,114680
8566,505,144,121059,114680
8569,505,144,121065,114691
8571,506,144,121079,114694
8574,507,144,121079,114703
8577,508,144,121098,114704
8580,509,144,121116,114704
8582,509,144,121124,114714
8584,509,144,121124,114718
8587,508,144,121139,114721
8589,509,144,121148,114721
8592,510,144,121158,114728
8594,512,144,121163,114725
8597,512,144,121162,114735
8599,513,144,121162,114714
8601,512,144,121151,114710
8604,511,144,121114,114698
8606,510,144,121075,114698
8609,509,144,121032,114658
8611,510,144,121032,114627
8614,512,144,120961,114585
8616,513,144,120807,114585
8620,514,144,120709,114548
8622,516,144,120606,114459
8624,517,144,120606,114422
8627,518,144,120384,114369
8629,518,144,120264,114369
8632,518,144,120169,114281
8634,517,144,120169,114240
8637,517,144,120061,114193
8639,517,144,119843,114193
8641,517,144,119747,114155
8644,517,144,119747,114066
8646,517,144,119659,114037
8649,517,144,119477,114037
8651,518,144,119400,114002
8654,517,144,119316,113974
8656,517,144,119316,113909
8659,516,144,119228,113876
8662,516,144,119083,113876
8664,516,144,119024,113848
8667,515,144,118961,113793
8669,514,144,118899,113793
8672,514,144,118899,113752
8674,514,144,118832,113729
8677,514,144,118723,113729
8679,514,144,118723,113685
8681,515,144,118679,113663
8684,515,144,118589,113663
8686,514,144,118546,113654
8689,512,144,118508,113623
8691,511,144,118480,113623
8694,509,145,118480,113596
8696,508,144,118447,113585
8699,508,144,118399,113585
8701,506,145,118399,113577
8704,504,145,118383,113567
8707,504,145,118343,113567
8709,503,144,118327,113558
8712,502,144,118327,113556
8714,502,145,118328,113552
8717,501,145,118318,113552
8719,501,145,118315,113552
8721,500,145,118315,113543
8724,499,145,118304,113543
8726,498,145,118307,113553
8729,496,145,118307,113553
8731,495,145,118320,113555
8734,495,145,118337,113555
8736,495,145,118336,113560
8739,496,145,118336,113566
8741,496,145,118352,113574
8743,497,145,118365,113574
8747,497,145,118389,113581
8749,497,145,118396,113595
8752,498,145,118396,113595
8754,498,145,118417,113601
8757,498,145,118443,113601
8759,498,145,118460,113613
8761,498,145,118460,113626
8764,499,145,118475,113625
8766,501,145,118489,113625
8769,501,145,118511,113637
8771,501,145,118524,113642
8774,500,145,118553,113649
8776,499,145,118568,113663
8779,498,145,118603,113666
8781,498,145,118603,113677
8783,499,145,118625,113677
8786,499,145,118632,113690
8788,499,145,118651,113693
8792,500,145,118673,113695
8794,502,145,118701,113706
8797,503,145,118703,113712
8799,503,145,118709,113720
8801,504,145,118733,113723
8804,504,145,118756,113728
8806,505,145,118767,113736
8809,506,145,118782,113752
8811,506,145,118803,113749
8814,507,145,118826,113761
8816,507,145,118850,113774
8819,506,145,118871,113778
8821,506,145,118872,113778
8823,506,145,118899,113787
8826,506,145,118917,113801
8828,506,145,118938,113811
8832,506,145,118955,113817
8834,507,145,118976,113825
8837,507,145,118988,113832
8839,509,145,119001,113834
8841,509,145,119028,113848
8844,509,145,119052,113865
8846,509,145,119083,113864
8849,509,145,119106,113875
8851,509,145,119125,113880
8854,509,145,119137,113898
8856,509,145,119152,113901
8859,509,145,119180,113905
8861,510,145,119182,113915
8863,510,145,119199,113918
8866,511,145,119218,113923
8868,510,145,119234,113929
8871,507,145,119243,113929
8873,506,145,119255,113939
8877,505,145,119262,113943
8879,505,145,119268,113938
8881,505,145,119276,113942
8884,505,145,119273,113941
8886,506,145,119266,113944
8889,506,145,119280,113935
8891,506,145,119284,113933
8894,506,145,119282,113935
8896,507,145,119275,113936
8899,507,145,119263,113939
8901,507,145,119259,113921
8903,507,145,119261,113927
8906,508,145,119244,113924
8908,509,145,119242,113917
8911,510,145,119240,113912
8913,513,145,119230,113903
8916,513,145,119221,113904
8919,514,145,119206,113898
8921,513,145,119195,113901
8924,512,145,119189,113896
8926,512,145,119175,113892
8929,512,145,119170,113890
8931,511,145,119154,113880
8934,510,145,119161,113881
8936,510,145,119150,113876
8939,510,145,119145,113870
8941,511,145,119137,113865
8943,511,145,119130,113866
8946,512,145,119115,113859
8948,512,145,119113,113844
8951,514,145,119113,113864
8953,515,145,119111,113850
8956,517,145,119108,113854
8958,519,145,119094,113855
8961,520,145,119103,113850
8964,521,145,119097,113855
8966,521,145,119107,113855
8969,520,145,119095,113861
8971,520,145,119112,113854
8974,519,145,119119,113856
8976,518,145,119119,113863
8979,517,145,119120,113862
8981,515,145,119126,113869
8983,513,145,119138,113867
8986,511,145,119150,113873
8988,508,145,119151,113876
8991,506,145,119160,113880
8993,503,145,119174,113884
8996,502,145,119188,113885
8998,501,145,119187,113893
9000,500,145,119187,113901
9004,500,145,119209,113897
9006,500,145,119222,113908
9009,501,146,119247,113910
9011,501,145,119255,113916
9014,502,145,119276,113925
9016,502,145,119293,113933
9019,502,145,119293,113942
9021,501,145,119322,113951
9023,501,145,119335,113951
9026,501,145,119362,113969
9028,500,145,119378,113971
9031,500,145,119378,113980
9033,500,145,119414,113980
9036,500,145,119430,113980
9038,501,145,119452,113997
9040,502,145,119462,114008
9043,504,145,119489,114018
9046,504,146,119489,114031
9049,503,145,119531,114030
9051,501,145,119553,114042
9054,499,145,119553,114044
9056,494,145,119591,114056
9059,489,145,119610,114056
9061,474,145,119648,114081
9063,465,145,119648,114086
9066,455,145,119684,114094
9068,450,145,119706,114094
9071,447,145,119734,114102
9073,445,145,119748,114117
9076,447,145,119773,114132
9078,464,145,119792,114139
9080,482,145,119792,114151
9083,515,145,119831,114162
9085,542,145,119857,114162
9089,631,145,119893,114171
9091,671,146,119893,114180
9094,721,145,119903,114195
9096,751,145,119951,114195
9099,770,145,119969,114203
9101,757,146,119986,114209
9103,735,146,119986,114225
9106,701,146,120020,114231
9108,677,146,120038,114231
9111,648,146,120063,114242
9113,600,146,120063,114252
9116,564,146,120079,114257
9118,536,146,120112,114257
9120,504,146,120133,114266
9123,460,145,120142,114279
9125,445,146,120142,114291
9128,429,145,120172,114296
9131,419,146,120195,114296
9134,409,145,120215,114303
9136,401,145,120215,114316
9139,400,145,120228,114321
9141,402,145,120257,114321
9143,408,146,120276,114327
9146,425,145,120289,114334
9148,433,145,120306,114334
9151,451,145,120306,114347
9153,461,145,120316,114350
9156,467,145,120341,114350
9158,475,145,120341,114362
9160,479,145,120363,114372
9163,481,145,120390,114372
9165,483,145,120384,114381
9168,487,145,120428,114398
9170,488,145,120437,114398
9174,490,145,120437,114401
9176,491,145,120449,114410
9179,492,145,120470,114410
9181,493,145,120470,114419
9183,493,145,120483,114422
9186,494,145,120512,114422
9188,494,145,120528,114426
9191,497,145,120528,114436
9193,497,145,120547,114436
9196,499,145,120547,114440
9198,500,145,120530,114452
9200,501,145,120571,114452
9203,501,145,120571,114461
9205,501,145,120593,114465
9208,502,145,120606,114465
9210,502,145,120616,114469
9213,503,145,120616,114474
9216,504,145,120626,114478
9219,505,145,120641,114478
9221,507,145,120658,114484
9223,508,145,120666,114495
9226,508,145,120666,114499
9228,506,145,120674,114507
9231,506,145,120689,114507
9233,505,145,120702,114512
9236,506,145,120702,114516
9238,508,145,120711,114512
9240,509,145,120716,114512
9243,509,145,120722,114519
9245,510,145,120726,114529
9248,510,144,120739,114519
9250,510,145,120756,114531
9253,510,145,120764,114532
9255,511,145,120765,114539
9259,512,145,120765,114541
9261,513,145,120766,114541
9263,514,145,120768,114541
9266,514,145,120764,114536
9268,515,144,120754,114522
9271,515,145,120733,114509
9273,517,144,120696,114490
9276,518,145,120608,114474
9278,518,145,120540,114453
9280,518,144,120540,114386
9283,518,144,120470,114386
9285,518,144,120376,114345
9288,518,144,120291,114306
9290,519,144,120202,114267
9293,520,144,120092,114222
9295,520,144,119985,114179
9298,520,144,119885,114138
9300,520,144,119785,114097
9303,520,144,119670,114055
9306,520,144,119582,114012
9308,521,144,119480,113981
9311,521,144,119398,113946
9313,521,144,119313,113904
9316,522,144,119222,113877
9318,521,144,119146,113844
9320,520,144,119062,113806
9323,520,144,118972,113772
9325,519,144,118906,113738
9328,517,144,118827,113713
9330,515,144,118756,113680
9333,515,144,118683,113654
9335,514,144,118615,113628
9338,513,144,118549,113596
9340,512,144,118486,113570
9342,512,144,118432,113548
9346,511,144,118371,113520
9348,510,143,118327,113508
9351,510,143,118259,113483
9353,510,144,118213,113469
9356,510,143,118176,113452
9358,509,144,118140,113431
9360,508,143,118094,113413
9363,506,143,118064,113400
9365,504,143,118035,113391
9368,503,143,117997,113377
9370,502,143,117980,113370
9373,501,143,117952,113361
9375,500,143,117930,113349
9378,500,143,117910,113343
9380,499,143,117904,113335
9382,499,143,117902,113334
9385,499,143,117894,113330
9388,498,143,117888,113329
9391,497,143,117885,113329
9393,495,143,117881,113328
9396,495,143,117878,113330
9398,495,143,117879,113331
9400,495,143,117895,113326
9403,496,143,117883,113329
9405,496,143,117890,113339
9408,496,143,117902,113339
9410,497,143,117916,113340
9413,498,143,117917,113339
9415,498,143,117926,113343
9418,498,143,117939,113350
9420,498,143,117953,113352
9422,498,143,117970,113359
9425,498,142,117977,113370
9427,499,142,117993,113373
9431,500,142,118007,113378
9433,500,142,118025,113392
9436,500,143,118044,113390
9438,501,142,118070,113402
9440,501,142,118081,113403
9443,501,142,118099,113420
9445,500,142,118113,113428
9448,500,142,118141,113439
9450,500,142,118152,113448
9453,502,142,118186,113460
9455,502,142,118192,113467
9458,504,142,118204,113473
9460,504,142,118227,113477
9462,504,142,118244,113481
9465,503,142,118261,113486
9467,503,142,118273,113494
9470,504,142,118303,113511
9473,505,142,118317,113509
9476,505,142,118333,113526
9478,505,142,118359,113528
9480,505,142,118375,113522
9483,505,142,118397,113548
9485,506,142,118411,113550
9488,506,142,118439,113556
9490,507,142,118445,113563
9493,507,142,118466,113571
9495,508,142,118496,113592
9498,508,142,118496,113588
9500,508,141,118529,113595
9502,508,141,118547,113595
9505,508,141,118571,113618
9507,508,141,118593,113625
9510,508,141,118593,113635
9512,508,141,118632,113638
9516,509,141,118655,113638
9518,510,141,118669,113661
9520,512,141,118689,113658
9523,513,141,118705,113668
9525,513,141,118705,113675
9528,513,141,118737,113687
9530,512,141,118739,113684
9533,511,141,118739,113680
9535,511,141,118762,113689
9538,511,141,118768,113689
9540,511,141,118790,113703
9542,511,141,118780,113694
9545,510,141,118791,113700
9547,510,141,118791,113698
9550,510,141,118797,113696
9552,510,141,118785,113696
9555,509,141,118795,113699
9558,508,141,118789,113694
9560,508,141,118789,113687
9563,508,140,118774,113688
9565,509,141,118768,113688
9568,509,140,118760,113682
9570,509,140,118760,113676
9573,508,140,118746,113671
9575,507,140,118735,113671
9578,506,140,118735,113669
9580,506,140,118715,113661
9582,506,140,118715,113663
9585,506,140,118697,113655
9587,506,140,118688,113655
9590,504,140,118684,113645
9592,503,140,118684,113647
9595,503,140,118684,113645
9597,504,140,118660,113645
9600,504,140,118660,113643
9603,506,140,118650,113628
9605,506,140,118650,113631
9608,507,140,118649,113635
9610,508,140,118639,113635
9613,508,140,118640,113641
9615,511,140,118640,113642
9618,512,140,118640,113639
9620,513,140,118638,113639
9622,513,139,118652,113640
9625,514,140,118652,113646
9627,514,140,118650,113646
9630,514,139,118650,113645
9632,513,139,118642,113648
9635,513,139,118672,113648
9637,514,139,118672,113658
9639,515,139,118675,113659
9643,516,139,118691,113659
9645,518,139,118680,113659
9648,520,139,118712,113672
9650,521,139,118723,113672
9653,522,139,118723,113679
9655,522,139,118749,113694
9658,522,139,118763,113694
9660,520,139,118763,113704
9662,518,139,118781,113709
9665,516,139,118814,113709
9667,515,139,118831,113718
9670,513,139,118831,113733
9672,511,139,118866,113733
9675,508,139,118866,113751
9677,507,138,118857,113768
9679,506,139,118915,113768
9682,505,138,118915,113775
9684,503,139,118945,113782
9688,502,138,118971,113782
9690,500,138,118999,113789
9693,498,138,118999,113809
9695,498,138,119039,113809
9698,499,138,119039,113830
9700,500,138,119056,113849
9702,500,138,119088,113849
9705,501,138,119149,113851
9707,501,138,119164,113867
9710,501,138,119164,113882
9712,500,138,119192,113890
9715,500,138,119230,113890
9717,500,138,119261,113902
9719,500,138,119261,113927
9722,500,138,119283,113935
9724,500,137,119315,113935
9728,501,138,119335,113951
9730,501,138,119361,113960
9733,502,138,119392,113970
9735,502,138,119424,113977
9738,503,138,119470,113987
9740,503,137,119501,114008
9742,502,137,119501,114028
9745,494,137,119523,114040
9747,487,137,119547,114040
9750,479,137,119573,114055
9752,468,137,119595,114058
9755,461,137,119626,114070
9757,453,137,119652,114078
9759,448,137,119669,114085
9762,446,137,119692,114095
9764,457,137,119720,114110
9767,468,137,119765,114117
9769,488,137,119765,114133
9773,509,137,119788,114133
9775,598,137,119809,114143
9778,646,137,119831,114145
9780,684,137,119847,114159
9782,726,137,119864,114162
9785,760,137,119888,114180
9787,777,137,119916,114183
9790,767,137,119927,114189
9792,744,137,119947,114192
9795,717,137,119963,114209
9797,660,137,119989,114204
9799,631,137,119995,114217
9802,595,137,120004,114217
9804,562,136,120028,114226
9807,520,137,120038,114226
9809,484,136,120057,114239
9812,456,136,120072,114243
9815,424,136,120090,114252
9818,413,136,120103,114263
9820,403,136,120119,114258
9822,398,136,120129,114272
9825,398,136,120138,114272
9827,405,136,120155,114280
9830,414,136,120172,114290
9832,427,136,120177,114288
9835,438,136,120203,114293
9837,458,136,120208,114301
9839,465,136,120224,114301
9842,471,136,120226,114302
9844,475,136,120236,114306
9847,479,135,120255,114311
9849,481,135,120272,114318
9852,482,135,120274,114323
9854,484,135,120280,114322
9858,485,135,120290,114325
9860,489,135,120299,114335
9862,489,135,120309,114336
9865,490,135,120326,114332
9867,491,135,120332,114341
9870,492,135,120330,114336
9872,493,135,120339,114346
9875,495,135,120361,114352
9877,496,135,120369,114350
9879,496,135,120369,114354
9882,496,135,120373,114350
9884,495,135,120377,114363
9887,495,135,120379,114367
9889,494,135,120389,114369
9892,495,135,120400,114363
9894,495,135,120416,114363
9897,496,135,120417,114364
9900,498,135,120424,114374
9902,499,135,120423,114374
9905,500,135,120430,114376
9907,500,135,120444,114385
9910,500,134,120444,114387
9912,500,134,120455,114392
9915,501,135,120470,114394
9917,502,134,120475,114396
9919,503,134,120484,114399
9922,504,134,120494,114405
9924,505,134,120507,114411
9927,506,134,120501,114415
9929,507,134,120525,114422
9932,507,134,120529,114421
9934,509,134,120537,114422
9937,510,134,120548,114427
9939,510,134,120556,114430
9942,511,134,120556,114426
9945,511,134,120561,114423
9947,511,134,120559,114428
9950,511,134,120543,114423
9952,511,134,120528,114408
9955,512,134,120507,114395
9957,513,134,120472,114373
9959,513,134,120413,114333
9962,515,134,120356,114328
9964,516,134,120281,114282
9967,516,134,120191,114238
9969,517,134,120087,114201
9972,517,134,119986,114151
9974,517,134,119883,114107
9977,517,134,119778,114060
9979,517,134,119667,114021
9981,517,134,119563,113971
9985,519,134,119452,113929
9987,520,134,119348,113885
9990,520,134,119348,113844
9992,520,133,119148,113799
9995,520,133,119054,113799
9997,520,133,118969,113726
9999,520,133,118873,113685
10002,519,134,118772,113649
10004,518,133,118772,113612
10007,516,133,118606,113578
10009,516,133,118524,113548
10012,515,134,118524,113515
10014,515,133,118370,113488
10017,515,133,118295,113488
10019,515,133,118227,113429
10021,514,133,118150,113395
10024,514,133,118090,113368
10027,514,133,118090,113346
10030,513,133,117960,113317
10032,513,133,117901,113290
10035,512,133,117901,113279
10037,511,133,117808,113257
10039,511,133,117769,113257
10042,510,133,117731,113230
10044,510,133,117731,113209
10047,510,133,117692,113189
10049,509,133,117627,113189
10052,509,133,117605,113188
10054,507,133,117580,113166
10057,506,133,117559,113169
10059,504,133,117546,113152
10061,503,133,117527,113152
10064,502,133,117522,113137
10066,502,133,117522,113149
10070,501,133,117514,113145
10072,501,133,117498,113145
10075,501,133,117508,113141
10077,500,133,117504,113143
10079,499,133,117504,113145
10082,498,133,117513,113147
10084,499,133,117521,113147
10087,498,133,117529,113154
10089,498,133,117529,113161
10092,498,133,117531,113158
10094,499,133,117548,113158
10097,500,133,117570,113167
10099,502,133,117587,113189
10101,502,133,117587,113187
10104,502,132,117617,113187
10106,502,133,117639,113197
10109,501,132,117647,113202
10112,500,133,117647,113214
10115,499,133,117683,113224
10117,499,132,117700,113224
10119,499,132,117718,113230
10122,499,132,117732,113246
10124,498,133,117752,113246
10127,497,132,117752,113261
10129,496,132,117772,113278
10132,496,132,117797,113278
10134,496,132,117797,113280
10137,497,132,117820,113285
10139,498,132,117848,113285
10141,499,132,117871,113296
10144,500,132,117877,113304
10146,501,132,117895,113304
10149,503,132,117895,113320
10151,504,132,117903,113330
10155,505,132,117933,113330
10157,506,132,117933,113340
10159,506,132,117959,113350
10162,506,132,117980,113350
10164,506,132,117998,113346
10167,507,132,117998,113357
10169,507,132,118007,113373
10172,507,132,118033,113373
10174,508,132,118064,113378
10177,508,132,118064,113385
10179,508,132,118089,113385
10181,508,132,118107,113403
10184,508,132,118107,113418
10186,507,132,118123,113419
10189,508,132,118155,113419
10191,508,132,118173,113430
10194,508,132,118173,113438
10196,509,132,118193,113442
10199,509,132,118204,113442
10202,509,132,118231,113450
10204,510,132,118244,113456
10207,511,132,118244,113464
10209,511,132,118261,113468
10212,511,132,118277,113468
10214,510,132,118295,113473
10217,510,132,118295,113476
10219,510,132,118299,113484
10221,510,132,118295,113484
10224,509,132,118303,113483
10226,508,132,118314,113489
10229,507,132,118313,113478
10231,506,132,118326,113492
10234,506,132,118319,113490
10236,505,132,118317,113488
10238,505,132,118317,113483
10242,504,132,118318,113480
10244,505,132,118312,113480
10247,505,132,118310,113486
10249,505,132,118307,113468
10252,505,132,118302,113472
10254,507,132,118299,113473
10257,507,132,118301,113470
10259,507,132,118301,113468
10261,507,132,118289,113468
10264,507,132,118280,113467
10266,507,132,118281,113466
10269,507,132,118271,113452
10271,508,132,118267,113460
10274,508,132,118266,113461
10276,508,132,118259,113455
10278,507,132,118242,113450
10281,507,132,118250,113450
10284,507,132,118234,113447
10287,507,132,118229,113445
10289,509,132,118237,113445
10292,510,132,118230,113440
10294,511,132,118225,113445
10297,511,132,118229,113444
10299,512,132,118224,113438
10301,513,131,118218,113448
10304,513,132,118217,113446
10306,514,132,118221,113443
10309,515,132,118225,113448
10311,515,132,118222,113438
10314,515,132,118232,113452
10316,515,131,118228,113448
10318,516,132,118247,113452
10321,517,131,118244,113453
10323,518,131,118244,113460
10327,518,132,118247,113448
10329,518,131,118250,113458
10332,518,131,118254,113467
10334,518,132,118260,113462
10337,519,131,118265,113470
10339,519,131,118275,113466
10341,517,132,118302,113474
10344,514,131,118310,113476
10346,510,132,118324,113486
10349,508,131,118330,113488
10351,507,131,118342,113499
10354,506,131,118347,113500
10356,505,131,118363,113507
10358,504,131,118374,113512
10361,504,131,118391,113525
10363,502,131,118406,113524
10366,502,131,118427,113540
10369,501,131,118452,113541
10372,501,131,118467,113550
10374,501,131,118488,113559
10377,501,131,118498,113565
10379,502,131,118509,113571
10381,501,131,118533,113580
10384,502,131,118547,113590
10386,502,131,118566,113600
10389,502,131,118598,113606
10391,502,131,118602,113611
10394,502,131,118618,113623
10396,501,131,118642,113627
10398,501,131,118671,113635
10401,501,131,118684,113649
10403,502,131,118699,113664
10406,501,131,118724,113667
10408,501,131,118738,113672
10412,500,131,118758,113675
10414,500,131,118780,113694
10417,501,131,118814,113703
10419,501,131,118836,113709
10421,500,131,118847,113722
10424,496,131,118860,113727
10426,486,131,118887,113734
10429,478,131,118911,113749
10431,465,131,118930,113751
10434,453,131,118950,113760
10436,447,131,118979,113768
10438,443,131,118987,113753
10441,445,131,119008,113788
10443,452,131,119030,113789
10446,462,131,119050,113796
10448,483,131,119060,113806
10451,507,131,119082,113813
10454,584,131,119098,113826
10457,631,131,119125,113823
10459,669,131,119141,113831
10461,720,131,119166,113842
10464,772,131,119184,113848
10466,780,131,119201,113853
10469,774,131,119201,113867
10471,754,131,119226,113863
10474,733,131,119248,113863
10476,680,131,119272,113894
10478,656,131,119294,113892
10481,597,131,119300,113888
10483,558,131,119319,113906
10486,527,131,119337,113906
