TimeStamp,ECG Data,GSR Data,PPG_Red Data,PPG_IR Data
3,0,0,0,0
6,439,98,0,0
8,444,98,57574,57557
11,452,98,73923,73914
13,459,99,90288,90293
15,467,99,106717,106706
18,474,99,123096,119674
20,483,99,124823,119678
23,484,99,124839,119683
25,485,99,124839,119687
28,485,100,124842,119687
30,486,100,124843,119677
33,486,100,124853,119690
35,487,100,124857,119696
37,488,100,124863,119691
40,489,100,124879,119695
43,492,101,124872,119695
46,493,101,124882,119702
48,494,101,124884,119701
51,496,101,124895,119706
53,496,101,124902,119715
55,496,102,124909,119712
58,496,102,124911,119716
60,497,102,124912,119718
63,498,102,124923,119722
65,498,102,124934,119729
68,499,102,124932,119720
70,501,102,124931,119719
73,501,102,124934,119717
75,501,102,124943,119716
77,500,103,124949,119727
80,500,103,124952,119726
82,501,103,124960,119724
86,501,103,124954,119731
88,502,103,124952,119726
91,503,103,124965,119724
93,505,103,124959,119735
95,506,103,124963,119727
98,506,103,124969,119727
100,505,103,124983,119731
103,504,104,124986,119734
105,503,104,124990,119737
108,503,104,124998,119736
110,503,104,124995,119739
113,503,104,125001,119740
115,505,104,124992,119745
117,505,104,124993,119740
120,506,104,125003,119739
122,506,104,125009,119743
125,507,104,124993,119736
128,506,104,124990,119740
131,507,104,124985,119735
133,507,104,124976,119735
135,506,104,124968,119730
138,506,104,124962,119726
140,506,104,124946,119719
143,506,104,124931,119709
145,505,105,124913,119708
148,505,105,124903,119700
150,505,105,124890,119698
153,505,105,124869,119693
155,505,105,124854,119679
157,505,105,124826,119676
160,505,105,124812,119663
162,504,105,124785,119659
165,503,105,124763,119645
167,503,105,124746,119636
171,503,105,124730,119631
173,505,105,124709,119623
175,506,105,124691,119610
178,506,105,124660,119602
180,506,105,124638,119592
183,507,105,124617,119582
185,507,105,124614,119579
188,508,105,124588,119573
190,508,105,124571,119564
193,510,105,124554,119555
195,512,105,124541,119551
197,513,105,124523,119536
200,514,106,124511,119539
202,514,105,124499,119531
205,514,106,124485,119517
207,514,106,124467,119515
210,515,106,124465,119512
212,515,106,124454,119510
215,516,106,124448,119503
218,516,106,124440,119501
220,516,106,124431,119493
223,516,106,124423,119488
225,516,106,124422,119480
228,517,106,124404,119479
230,517,106,124409,119486
233,517,106,124399,119481
235,516,106,124399,119477
237,515,106,124392,119473
240,513,106,124387,119477
242,513,106,124384,119466
245,513,106,124384,119465
247,513,106,124376,119457
250,513,106,124368,119457
252,511,106,124370,119459
254,511,106,124367,119460
258,511,106,124366,119451
260,511,106,124366,119450
263,510,106,124356,119453
265,510,106,124354,119456
268,510,106,124354,119451
270,511,106,124347,119454
273,512,106,124359,119454
275,511,106,124361,119456
277,510,106,124353,119455
280,509,106,124363,119451
282,508,107,124363,119461
285,508,107,124365,119466
287,509,107,124360,119459
290,510,107,124360,119455
292,510,107,124365,119461
294,512,107,124373,119461
297,513,107,124384,119466
300,514,107,124384,119462
303,514,107,124380,119456
305,514,107,124383,119456
308,514,107,124389,119464
310,514,107,124392,119461
313,514,107,124397,119471
315,516,107,124390,119466
317,516,107,124393,119466
320,516,107,124404,119469
322,515,107,124404,119471
325,515,107,124413,119474
327,516,107,124418,119474
330,518,107,124432,119479
332,522,107,124429,119479
334,524,107,124429,119480
337,527,107,124441,119482
339,528,107,124448,119482
343,528,107,124461,119494
345,527,107,124461,119492
348,527,107,124464,119500
350,527,107,124470,119500
353,527,107,124493,119500
355,527,107,124495,119502
357,527,107,124495,119510
360,527,107,124511,119506
362,527,107,124514,119506
365,526,107,124515,119525
367,524,107,124515,119519
370,521,107,124532,119516
372,519,107,124536,119516
374,517,107,124546,119527
377,514,107,124549,119528
379,513,107,124552,119528
382,510,107,124552,119535
385,508,108,124560,119535
388,507,108,124556,119535
390,504,108,124556,119540
393,502,107,124575,119547
395,501,107,124585,119547
397,500,108,124588,119557
400,500,108,124588,119546
402,499,108,124595,119546
405,498,107,124595,119552
407,496,107,124595,119558
410,496,108,124593,119558
412,495,108,124593,119557
414,495,108,124605,119560
417,496,108,124609,119560
419,496,108,124614,119553
422,496,108,124614,119558
424,496,108,124621,119558
428,496,108,124621,119558
430,497,108,124616,119567
433,497,108,124624,119567
435,497,108,124624,119566
437,497,108,124633,119559
440,497,108,124637,119559
442,498,108,124637,119572
445,500,108,124640,119581
447,500,108,124649,119579
450,500,108,124643,119579
452,499,108,124657,119580
454,497,108,124657,119589
457,495,108,124669,119589
459,493,108,124669,119588
462,491,108,124672,119595
464,492,108,124686,119598
467,493,108,124680,119598
470,495,108,124689,119601
473,505,108,124689,119604
475,512,108,124706,119604
477,526,108,124706,119607
480,564,108,124707,119608
482,593,108,124713,119620
485,619,108,124717,119618
487,636,108,124721,119619
490,643,109,124731,119619
492,647,109,124729,119623
494,648,109,124743,119622
497,642,109,124739,119634
499,603,109,124748,119634
502,579,109,124763,119632
504,551,109,124763,119629
507,505,109,124753,119634
509,487,109,124774,119634
513,473,109,124762,119638
515,461,109,124775,119636
517,453,109,124773,119635
520,446,109,124786,119630
522,445,109,124775,119634
525,450,109,124772,119635
527,457,109,124787,119633
530,465,109,124793,119634
532,477,109,124806,119645
534,481,109,124809,119633
537,483,109,124794,119641
539,485,109,124804,119641
542,487,109,124819,119644
544,490,109,124818,119641
547,492,109,124824,119647
549,494,109,124830,119644
552,496,109,124828,119653
555,498,109,124840,119658
557,499,109,124844,119658
560,498,109,124844,119657
562,498,109,124869,119662
565,496,109,124858,119657
567,496,109,124867,119662
570,495,109,124867,119666
572,497,109,124873,119663
574,498,109,124878,119665
577,499,109,124878,119658
579,500,109,124880,119669
582,501,109,124883,119666
584,502,109,124890,119667
587,503,109,124894,119661
589,503,109,124890,119672
592,503,109,124905,119679
594,504,109,124917,119677
596,504,109,124917,119677
600,505,109,124927,119684
602,505,109,124931,119682
605,505,110,124926,119681
607,506,109,124928,119685
610,507,110,124940,119681
612,509,110,124940,119680
614,509,110,124929,119681
617,509,109,124945,119678
619,509,110,124948,119684
622,509,109,124954,119671
624,510,110,124949,119675
627,510,109,124949,119682
629,510,110,124944,119678
632,511,110,124949,119675
634,511,110,124937,119680
636,511,110,124942,119686
640,511,110,124951,119678
642,512,110,124935,119664
645,513,110,124924,119664
647,513,110,124923,119671
650,513,110,124906,119665
652,513,110,124895,119670
654,513,110,124888,119655
657,513,110,124873,119655
659,513,110,124864,119647
662,512,110,124842,119643
664,511,110,124824,119640
667,510,110,124808,119634
669,510,110,124797,119626
672,510,110,124762,119622
674,510,110,124750,119609
676,510,110,124731,119606
679,509,110,124713,119597
681,508,110,124683,119590
685,507,110,124653,119575
687,507,110,124627,119571
690,507,110,124614,119555
692,508,110,124590,119544
694,508,110,124577,119543
697,509,110,124555,119534
699,511,110,124533,119527
702,512,110,124518,119525
704,513,110,124496,119511
707,513,110,124480,119511
709,514,110,124465,119496
712,515,110,124452,119490
714,516,110,124434,119485
716,517,110,124427,119472
719,517,110,124416,119462
721,518,110,124396,119457
724,518,110,124384,119456
727,518,110,124364,119444
730,518,110,124364,119445
732,519,110,124338,119435
734,520,110,124324,119435
737,522,111,124328,119435
739,523,111,124317,119423
742,522,111,124312,119423
744,521,110,124306,119417
747,520,111,124309,119419
749,517,111,124300,119418
752,515,111,124300,119409
754,513,111,124294,119415
756,512,111,124291,119415
759,510,111,124294,119414
761,510,111,124292,119414
764,510,111,124292,119407
766,510,111,124282,119409
770,511,111,124276,119409
772,512,111,124280,119409
774,512,111,124280,119415
777,512,111,124281,119411
779,512,111,124280,119411
782,512,111,124286,119418
784,513,111,124276,119418
787,513,111,124276,119422
789,513,111,124288,119409
792,513,111,124282,119409
794,511,111,124296,119422
796,511,111,124296,119418
799,511,111,124282,119412
801,511,111,124289,119412
804,511,111,124293,119418
806,510,111,124291,119420
809,510,111,124290,119421
812,511,111,124290,119410
814,512,111,124285,119409
817,512,111,124270,119411
819,513,111,124280,119411
822,516,111,124289,119417
824,517,111,124289,119415
827,519,111,124296,119421
829,520,111,124296,119421
832,520,111,124301,119417
834,520,111,124307,119423
836,519,111,124307,119428
839,518,111,124314,119429
841,517,111,124320,119429
844,516,111,124331,119435
846,516,111,124331,119431
849,517,111,124324,119429
851,518,111,124327,119429
854,517,111,124342,119439
857,517,111,124342,119434
859,517,111,124354,119437
862,517,111,124356,119437
864,516,111,124367,119444
867,516,111,124370,119446
869,515,111,124370,119448
872,515,111,124384,119453
874,515,111,124382,119453
876,515,112,124403,119452
879,514,111,124404,119457
881,515,111,124410,119457
884,516,111,124410,119457
886,516,111,124416,119465
889,517,111,124431,119465
891,519,112,124431,119466
893,520,112,124437,119464
897,522,112,124437,119464
899,522,112,124423,119477
902,524,112,124461,119474
904,524,112,124462,119474
907,525,112,124462,119481
909,526,112,124469,119484
912,528,112,124470,119484
914,530,112,124470,119479
916,531,112,124482,119484
919,531,112,124484,119484
921,530,112,124490,119490
924,526,112,124490,119490
926,525,112,124492,119490
929,521,112,124492,119492
931,517,112,124473,119494
933,514,112,124501,119494
936,510,112,124501,119495
939,508,112,124503,119497
942,507,112,124509,119497
944,506,112,124514,119498
947,505,112,124514,119505
949,504,112,124516,119503
952,503,112,124521,119503
954,502,112,124531,119507
956,501,112,124530,119512
959,500,112,124530,119517
961,500,112,124534,119515
964,500,112,124548,119515
966,499,112,124545,119520
969,499,112,124545,119518
971,498,112,124540,119516
973,498,112,124551,119516
976,498,112,124553,119521
978,498,112,124555,119519
982,499,112,124562,119518
984,499,112,124567,119517
987,500,112,124562,119511
989,501,112,124566,119519
992,501,112,124566,119511
994,501,112,124567,119513
996,500,112,124570,119513
999,499,112,124571,119510
1001,499,112,124571,119518
1004,498,112,124578,119522
1006,499,112,124589,119522
1009,499,112,124599,119525
1011,499,112,124608,119534
1013,498,112,124608,119538
1016,497,112,124616,119538
1018,496,112,124619,119546
1021,495,112,124629,119554
1024,494,112,124648,119560
1027,494,112,124650,119561
1029,496,112,124652,119570
1032,499,112,124663,119575
1034,507,112,124672,119586
1036,531,112,124687,119593
1039,550,112,124689,119595
1041,573,112,124709,119601
1044,597,112,124721,119613
1046,630,112,124730,119614
1049,636,112,124736,119622
1051,639,112,124748,119630
1053,639,112,124760,119633
1056,632,112,124765,119640
1058,613,112,124777,119653
1061,585,112,124775,119653
1063,536,112,124790,119655
1067,516,112,124800,119653
1069,495,112,124805,119658
1072,479,113,124820,119660
1074,458,112,124817,119666
1076,451,112,124846,119676
1079,446,112,124841,119669
1081,445,113,124843,119670
1084,447,112,124845,119670
1086,455,112,124857,119679
1089,464,112,124861,119672
1091,478,113,124866,119672
1093,482,113,124870,119676
1096,486,113,124881,119672
1098,488,113,124879,119682
1101,490,113,124902,119682
1103,492,113,124908,119687
1106,493,113,124908,119695
1108,494,113,124914,119694
1112,495,113,124914,119700
1114,496,113,124913,119692
1116,497,113,124925,119702
1119,498,113,124938,119701
1121,498,113,124938,119709
1124,498,113,124944,119709
1126,498,113,124953,119719
1129,498,113,124964,119715
1131,499,113,124961,119718
1133,500,113,124973,119727
1136,501,113,124979,119726
1138,502,113,124988,119731
1141,504,113,124985,119739
1143,504,113,124998,119740
1146,504,113,125018,119738
1148,504,113,125016,119743
1152,504,113,125027,119755
1154,503,113,125031,119751
1156,504,113,125044,119764
1159,504,113,125043,119764
1161,505,113,125051,119766
1164,505,113,125057,119774
1166,507,113,125065,119775
1169,508,113,125071,119772
1171,508,113,125079,119785
1173,507,113,125077,119789
1176,507,113,125087,119788
1178,507,113,125085,119793
1181,507,113,125083,119786
1183,508,114,125086,119790
1186,509,114,125087,119789
1188,511,114,125087,119788
1191,512,114,125091,119784
1193,513,114,125090,119790
1196,512,114,125091,119783
1199,512,114,125085,119782
1201,511,114,125088,119783
1204,510,114,125075,119780
1206,511,114,125066,119779
1209,511,114,125058,119772
1211,512,114,125039,119771
1213,513,114,125038,119767
1216,514,114,125024,119769
1218,514,114,125011,119767
1221,513,114,124994,119762
1223,513,114,124974,119739
1226,513,114,124967,119746
1228,512,114,124946,119736
1231,511,114,124931,119731
1233,508,114,124925,119727
1235,507,114,124889,119718
1239,508,114,124874,119717
1241,509,114,124863,119710
1244,509,114,124863,119700
1246,508,114,124825,119693
1249,509,114,124799,119693
1251,507,114,124793,119679
1253,507,114,124773,119675
1256,506,114,124751,119660
1258,507,114,124751,119661
1261,507,114,124720,119649
1263,509,114,124703,119636
1266,510,114,124703,119632
1268,511,115,124666,119625
1271,512,115,124656,119625
1273,513,115,124648,119620
1275,514,114,124622,119603
1278,516,115,124616,119602
1281,517,115,124616,119592
1284,518,115,124586,119582
1286,519,115,124575,119580
1289,519,115,124575,119577
1291,520,115,124550,119572
1293,520,115,124542,119572
1296,519,115,124540,119562
1298,519,115,124540,119555
1301,518,115,124519,119552
1303,517,115,124514,119552
1306,516,115,124512,119553
1308,516,115,124506,119546
1311,516,115,124504,119556
1313,517,115,124501,119550
1315,517,115,124493,119550
1318,516,115,124498,119555
1320,515,115,124498,119555
1324,513,115,124494,119558
1326,511,115,124491,119558
1329,510,115,124494,119564
1331,509,115,124482,119546
1333,508,115,124482,119548
1336,508,115,124473,119551
1338,508,115,124478,119551
1341,507,115,124471,119545
1343,505,115,124471,119551
1346,504,115,124459,119538
1348,504,115,124454,119538
1351,504,115,124450,119534
1353,505,115,124446,119528
1355,505,115,124446,119528
1358,506,115,124445,119528
1360,507,115,124442,119530
1363,507,115,124437,119520
1366,509,115,124437,119516
1369,510,115,124427,119516
1371,510,115,124418,119516
1373,510,116,124422,119500
1376,510,115,124403,119494
1378,510,115,124410,119494
1381,510,115,124410,119493
1383,511,115,124408,119494
1386,512,115,124403,119494
1388,514,115,124403,119496
1391,515,115,124407,119494
1393,516,115,124407,119494
1395,517,115,124408,119494
1398,518,115,124413,119496
1400,517,116,124420,119496
1640,490,114,124696,119582
1633,547,114,124679,119595
1635,527,115,124684,119599
1638,509,115,124694,119592
1640,490,114,124696,119582
1643,469,115,124688,119589
1633,547,114,124679,119595
1635,527,115,124684,119599
1638,509,115,124694,119592
1640,490,114,124696,119582
1643,469,115,124688,119589
1645,462,114,124704,119592
1648,454,115,124702,119596
1650,445,114,124694,119597
1652,443,114,124713,119598
1655,445,114,124713,119590
1657,450,115,124725,119599
1660,466,114,124724,119603
1662,475,114,124725,119603
1666,482,114,124732,119599
1668,487,114,124740,119605
1671,491,115,124738,119605
1673,495,114,124743,119617
1675,497,114,124756,119612
1678,499,114,124758,119620
1680,499,115,124761,119621
1683,498,114,124758,119618
1685,497,115,124761,119619
1688,497,114,124763,119613
1690,497,114,124768,119626
1692,498,115,124777,119632
1695,498,115,124791,119631
1697,500,114,124775,119631
1700,501,115,124783,119608
1702,502,114,124783,119626
1705,503,114,124792,119629
1708,504,114,124790,119627
1711,504,115,124793,119632
1713,505,114,124793,119629
1715,506,115,124790,119622
1718,507,115,124803,119621
1720,508,114,124788,119621
1723,508,114,124798,119621
1725,509,114,124790,119612
1728,508,115,124790,119623
1730,508,114,124793,119618
1732,507,114,124787,119618
1735,508,114,124793,119616
1737,508,114,124798,119611
1740,508,114,124794,119608
1742,509,114,124790,119608
1745,509,114,124796,119603
1747,509,114,124790,119611
1751,509,114,124790,119604
1753,508,114,124796,119611
1755,507,114,124801,119611
1758,506,114,124807,119613
1760,506,114,124806,119606
1763,507,114,124806,119608
1765,507,115,124803,119611
1768,507,114,124803,119611
1770,508,114,124802,119610
1772,509,114,124802,119605
1775,510,114,124798,119600
1777,511,114,124791,119600
1780,511,114,124778,119603
1782,512,114,124771,119599
1785,512,114,124771,119595
1787,512,114,124747,119589
1790,511,114,124729,119589
1793,510,114,124726,119582
1795,510,114,124726,119569
1798,510,114,124676,119566
1800,511,114,124652,119566
1803,511,114,124641,119558
1805,512,114,124624,119542
1808,512,114,124590,119541
1810,513,114,124590,119524
1812,512,114,124571,119518
1815,511,114,124521,119511
1817,510,114,124504,119511
1820,509,114,124485,119489
1822,509,114,124485,119486
1825,508,114,124461,119486
1827,509,114,124421,119486
1830,509,114,124405,119468
1832,511,114,124380,119452
1835,512,114,124380,119448
1838,512,114,124338,119435
1840,512,114,124317,119435
1843,511,114,124312,119433
1845,511,114,124312,119433
1848,512,114,124305,119418
1850,512,114,124283,119418
1852,512,114,124275,119418
1855,513,114,124275,119410
1857,514,114,124265,119410
1860,515,114,124250,119410
1862,516,114,124248,119413
1865,516,114,124241,119419
1867,518,114,124241,119414
1870,518,114,124229,119414
1872,518,114,124227,119414
1874,517,114,124221,119403
1878,516,114,124217,119402
1880,515,114,124209,119402
1883,514,114,124209,119390
1885,513,114,124208,119389
1888,513,114,124201,119389
1890,512,114,124201,119407
1892,512,114,124211,119401
1895,512,114,124211,119401
1897,513,114,124208,119397
1900,513,114,124206,119393
1902,512,114,124212,119393
1905,511,114,124212,119395
1907,509,114,124213,119406
1910,508,114,124214,119406
1912,507,114,124214,119405
1914,506,114,124219,119405
1917,506,114,124217,119405
1920,506,114,124231,119408
1923,505,114,124231,119409
1925,506,114,124220,119405
1928,507,114,124226,119405
1930,507,114,124234,119414
1932,507,114,124234,119408
1935,507,115,124227,119408
1937,507,114,124236,119412
1940,507,114,124236,119421
1942,507,114,124239,119422
1945,508,115,124245,119422
1947,509,115,124252,119430
1950,510,114,124252,119425
1952,512,114,124250,119434
1954,513,114,124258,119434
1957,514,115,124272,119429
1959,515,114,124270,119433
1963,514,115,124270,119437
1965,512,115,124278,119443
1968,512,115,124289,119443
1970,511,115,124293,119449
1972,512,115,124293,119452
1975,515,115,124303,119454
1977,516,115,124304,119454
1980,517,115,124317,119462
1982,517,115,124321,119466
1985,516,115,124326,119458
1987,515,115,124340,119463
1990,515,115,124344,119470
1992,517,115,124354,119466
1994,519,115,124354,119482
1997,523,115,124363,119476
1999,524,115,124369,119476
2002,525,115,124384,119481
2004,526,115,124386,119482
2008,526,115,124397,119487
2010,527,115,124400,119486
2012,528,115,124416,119493
2015,528,115,124410,119494
2017,530,115,124419,119497
2020,530,115,124439,119494
2022,531,115,124439,119505
2025,532,115,124448,119505
2027,532,115,124447,119500
2030,528,115,124461,119493
2032,524,115,124464,119506
2034,519,115,124462,119502
2037,515,115,124477,119501
2039,511,115,124468,119507
2042,510,115,124482,119507
2044,509,115,124482,119508
2048,508,115,124490,119512
2050,505,115,124493,119510
2052,503,115,124492,119500
2055,501,115,124486,119501
2057,500,115,124484,119494
2060,500,115,124504,119505
2062,499,115,124495,119501
2065,498,115,124504,119494
2067,497,115,124512,119509
2070,496,115,124512,119509
2072,494,115,124515,119510
2074,492,116,124524,119515
2077,492,115,124537,119517
2079,493,115,124539,119512
2082,493,116,124533,119524
2084,495,116,124538,119520
2087,495,115,124542,119521
2089,497,116,124540,119533
2092,497,116,124551,119534
2095,497,116,124550,119529
2097,497,116,124560,119538
2100,497,116,124571,119538
2102,497,116,124577,119541
2105,496,116,124577,119544
2107,496,116,124576,119551
2110,496,116,124589,119544
2112,496,116,124583,119547
2114,496,116,124592,119554
2117,495,116,124596,119559
2119,495,116,124613,119561
2122,492,116,124610,119550
2124,491,116,124610,119558
2127,490,116,124626,119559
2129,491,116,124621,119568
2131,492,116,124633,119564
2135,497,116,124631,119563
2137,503,116,124636,119570
2140,528,116,124640,119570
2142,548,116,124645,119575
2145,568,116,124652,119563
2147,591,116,124658,119573
2150,615,116,124656,119574
2152,634,116,124651,119570
2154,638,116,124667,119576
2157,640,116,124664,119567
2159,635,116,124667,119570
2162,617,116,124670,119576
2164,577,116,124671,119571
2167,560,116,124680,119572
2169,520,116,124680,119583
2171,499,116,124690,119584
2174,484,116,124692,119583
2177,465,116,124696,119562
2180,446,116,124699,119586
2182,439,116,124705,119585
2185,436,116,124701,119590
2187,436,117,124719,119594
2190,441,116,124722,119598
2192,456,116,124727,119605
2194,465,116,124731,119598
2197,471,116,124726,119604
2199,478,116,124739,119598
2202,483,116,124746,119600
2204,485,116,124748,119601
2207,486,117,124748,119603
2209,488,117,124749,119603
2211,489,116,124753,119602
2214,491,116,124763,119604
2216,492,117,124761,119598
2220,493,116,124762,119600
2222,494,116,124762,119607
2225,493,116,124771,119599
2227,492,117,124777,119605
2230,493,117,124779,119602
2232,494,116,124784,119600
2234,497,117,124784,119602
2237,500,117,124783,119604
2239,501,117,124787,119602
2242,500,117,124787,119606
2244,501,117,124794,119612
2247,501,117,124791,119612
2249,501,117,124804,119611
2251,501,117,124802,119613
2254,502,117,124809,119601
2256,502,117,124809,119608
2259,502,117,124803,119604
2262,502,117,124803,119606
2265,502,117,124803,119606
2267,502,117,124810,119599
2270,502,117,124810,119599
2272,504,117,124820,119610
2274,504,117,124807,119596
2277,506,117,124815,119602
2279,506,117,124815,119598
2282,506,117,124812,119596
2284,505,117,124810,119597
2287,506,117,124810,119599
2289,506,117,124818,119594
2291,507,117,124820,119594
2294,508,117,124820,119597
2296,508,117,124820,119592
2299,508,117,124820,119594
2301,509,117,124807,119594
2305,510,117,124815,119586
2307,511,117,124812,119586
2310,511,117,124802,119583
2312,510,117,124791,119570
2314,509,117,124779,119570
2317,508,117,124784,119581
2319,507,117,124784,119575
2322,507,117,124769,119572
2324,507,117,124752,119572
2327,507,117,124743,119565
2329,507,117,124727,119558
2331,507,117,124727,119551
2334,506,117,124685,119539
2336,506,117,124669,119539
2339,506,117,124657,119530
2341,504,117,124657,119523
2344,504,117,124631,119514
2347,504,117,124600,119514
2350,504,117,124585,119510
2352,506,117,124585,119492
2354,506,117,124568,119489
2357,506,117,124533,119489
2359,506,117,124515,119478
2362,507,117,124487,119469
2364,507,117,124487,119446
2367,507,117,124448,119442
2369,507,117,124438,119442
2371,508,117,124420,119436
2374,511,117,124398,119407
2376,512,117,124362,119407
2379,513,117,124362,119388
2381,514,117,124350,119380
2384,514,117,124313,119380
2386,514,117,124313,119361
2390,514,117,124303,119357
2392,514,117,124261,119357
2394,514,117,124248,119353
2397,515,117,124235,119340
2399,515,117,124231,119340
2402,516,117,124231,119331
2404,515,117,124219,119326
2407,515,117,124195,119326
2409,514,117,124195,119316
2411,515,117,124195,119316
2414,515,117,124177,119316
2416,515,117,124165,119313
2419,514,117,124165,119297
2421,513,117,124147,119297
2424,511,117,124147,119296
2426,508,117,124143,119282
2429,507,117,124116,119282
2432,505,117,124116,119276
2434,504,117,124129,119277
2437,504,117,124115,119277
2439,504,117,124115,119270
2442,504,117,124104,119271
2444,504,117,124105,119270
2447,504,117,124103,119270
2449,503,117,124110,119271
2451,504,117,124110,119271
2454,505,117,124107,119271
2456,504,117,124107,119272
2459,503,117,124108,119281
2461,503,117,124110,119282
2464,503,117,124100,119282
2466,504,117,124113,119283
2469,504,117,124113,119285
2471,505,117,124114,119285
2473,506,117,124114,119289
2477,507,117,124119,119291
2479,507,117,124117,119291
2482,509,117,124123,119299
2484,511,117,124127,119299
2487,513,117,124130,119299
2489,515,117,124137,119305
2491,516,117,124142,119304
2494,517,117,124153,119314
2496,516,117,124151,119320
2499,515,117,124173,119316
2501,513,117,124173,119321
2504,513,117,124165,119321
2506,511,117,124168,119322
2509,510,117,124182,119329
2511,510,117,124169,119327
2513,510,117,124190,119324
2516,510,117,124190,119322
2519,513,117,124199,119325
2522,513,117,124198,119326
2524,515,117,124205,119336
2527,516,117,124205,119338
2529,516,117,124211,119338
2531,515,117,124211,119332
2534,515,117,124214,119334
2536,514,117,124227,119342
2539,513,117,124236,119343
2541,513,117,124240,119349
2544,513,117,124255,119352
2546,518,117,124260,119343
2549,520,117,124270,119356
2551,522,117,124272,119350
2553,523,117,124273,119367
2556,524,117,124274,119364
2558,526,117,124286,119371
2562,526,117,124291,119373
2564,526,117,124302,119369
2567,526,117,124316,119380
2569,527,117,124326,119384
2571,528,117,124332,119383
2574,528,117,124333,119390
2576,527,117,124336,119390
2579,526,117,124340,119395
2581,524,117,124346,119397
2584,521,117,124351,119395
2586,516,117,124359,119406
2589,513,117,124358,119403
2591,512,117,124370,119406
2593,510,117,124368,119406
2596,508,117,124379,119408
2598,507,117,124386,119408
2601,506,117,124386,119415
2604,504,117,124393,119411
2607,502,117,124389,119415
2609,501,117,124386,119412
2611,500,117,124392,119418
2614,499,117,124386,119411
2616,499,117,124386,119412
2619,498,117,124396,119410
2621,497,117,124403,119413
2624,496,117,124402,119413
2626,495,117,124402,119410
2629,495,117,124404,119417
2631,496,117,124413,119419
2633,497,117,124415,119417
2636,497,117,124405,119423
2638,496,117,124410,119420
2641,496,117,124409,119422
2643,496,117,124414,119419
2647,497,117,124424,119415
2649,498,117,124422,119421
2651,499,117,124421,119420
2654,499,117,124426,119419
2656,498,117,124430,119425
2659,498,117,124437,119427
2661,498,117,124433,119428
2664,498,117,124438,119429
2666,498,117,124446,119425
2669,498,117,124458,119435
2671,497,117,124466,119441
2673,496,117,124469,119448
2676,494,117,124469,119449
2678,493,117,124473,119454
2681,494,117,124485,119447
2683,497,117,124486,119459
2686,507,117,124500,119456
2689,515,117,124509,119464
2691,532,117,124502,119447
2694,568,117,124507,119467
2696,593,117,124512,119470
2699,610,117,124522,119467
2701,627,117,124516,119467
2704,634,117,124525,119475
2706,637,117,124539,119476
2709,632,117,124542,119478
2711,621,117,124552,119482
2713,597,117,124549,119483
2716,551,118,124557,119491
2718,525,118,124568,119481
2721,505,117,124568,119495
2723,483,117,124570,119491
2726,471,118,124578,119491
2728,451,117,124587,119506
2731,447,117,124591,119504
2734,443,117,124601,119505
2736,446,117,124607,119505
2739,451,117,124607,119511
2741,459,117,124617,119506
2744,471,118,124626,119512
2746,477,117,124623,119513
2749,480,117,124623,119515
2751,484,117,124624,119514
2753,487,118,124634,119517
2756,488,118,124648,119521
2758,490,117,124641,119524
2761,491,118,124652,119521
2763,494,118,124656,119514
2766,494,118,124656,119523
2768,495,118,124655,119516
2770,496,118,124662,119516
2774,498,118,124674,119530
2776,498,118,124675,119518
2779,498,118,124675,119526
2781,499,118,124675,119527
2784,499,118,124679,119526
2786,499,118,124675,119520
2789,499,118,124675,119512
2791,498,118,124683,119521
2793,499,118,124688,119521
2796,502,118,124691,119523
2798,503,118,124691,119524
2801,504,117,124694,119528
2803,504,118,124706,119528
2806,504,118,124719,119534
2808,503,118,124720,119533
2810,502,118,124720,119542
2813,502,118,124732,119548
2816,503,118,124736,119548
2819,505,118,124743,119557
2821,507,118,124743,119555
2824,508,118,124754,119555
2826,508,118,124761,119555
2829,508,118,124776,119560
2831,507,118,124769,119564
2833,507,118,124769,119570
2836,507,118,124777,119570
2838,507,118,124783,119570
2841,507,118,124792,119568
2843,508,118,124792,119565
2846,509,118,124780,119572
2848,509,118,124782,119572
2850,510,118,124783,119569
2853,511,118,124771,119558
2855,511,118,124755,119558
2859,510,118,124750,119539
2861,508,118,124750,119537
2864,508,118,124748,119519
2866,508,118,124709,119519
2869,508,118,124699,119516
2871,509,118,124699,119506
2873,509,118,124681,119501
2876,509,118,124646,119501
2878,509,118,124639,119489
2881,508,118,124618,119486
2883,507,118,124618,119470
2886,506,118,124575,119460
2888,506,118,124559,119460
2890,506,118,124538,119448
2893,507,118,124538,119428
2895,507,118,124516,119416
2898,508,118,124470,119416
2900,508,118,124454,119412
2904,509,118,124454,119397
2906,509,118,124398,119397
2909,509,118,124391,119380
2911,511,118,124391,119362
2913,512,118,124359,119342
2916,513,118,124330,119342
2918,513,118,124303,119345
2921,514,118,124303,119319
2923,514,118,124287,119315
2926,515,118,124246,119315
2928,514,118,124236,119305
2930,515,118,124221,119306
2933,518,118,124221,119290
2935,519,118,124200,119284
2938,521,118,124171,119284
2940,521,118,124159,119286
2944,520,118,124159,119268
2946,520,118,124147,119262
2949,519,118,124137,119262
2951,517,118,124122,119253
2953,515,118,124102,119261
2956,513,118,124102,119244
2958,511,118,124101,119239
2961,511,119,124064,119239
2963,510,118,124053,119233
2966,510,118,124053,119211
2968,509,118,124039,119209
2970,508,118,124029,119209
2973,507,119,124012,119203
2975,507,118,124001,119197
2978,507,118,123976,119182
2980,507,118,123982,119174
2983,507,118,123956,119173
2985,506,119,123951,119170
2989,507,119,123951,119155
2991,507,118,123954,119159
2993,506,118,123943,119159
2996,506,118,123938,119159
2998,506,119,123936,119150
3001,507,118,123929,119153
3003,507,118,123934,119150
3006,506,119,123934,119150
3008,505,118,123937,119157
3010,504,119,123937,119156
3013,504,119,123942,119156
3015,502,119,123932,119156
3018,503,119,123948,119149
3020,504,119,123936,119152
3023,505,119,123941,119160
3025,505,118,123946,119159
3028,506,119,123939,119155
3031,507,119,123948,119156
3033,508,119,123940,119149
3036,508,119,123940,119155
3038,507,119,123954,119164
3041,507,119,123956,119163
3043,508,119,123953,119160
3046,508,119,123952,119163
3048,509,119,123955,119161
3050,509,119,123964,119172
3053,510,119,123953,119168
3055,511,119,123958,119168
3058,512,119,123951,119166
3060,512,119,123975,119171
3063,512,119,123972,119175
3065,512,119,123986,119169
3068,512,119,123989,119172
3070,513,119,123989,119176
3073,514,119,123995,119179
3076,515,119,124002,119182
3078,516,119,124011,119184
3081,517,119,124017,119191
3083,517,119,124017,119188
3086,517,119,124030,119200
3088,516,119,124033,119195
3090,515,119,124048,119199
3093,512,119,124052,119205
3095,512,119,124054,119204
3098,513,119,124076,119204
3100,514,119,124083,119216
3103,517,119,124092,119215
3105,520,119,124096,119216
3108,522,119,124097,119214
3110,523,119,124109,119223
3112,525,119,124109,119219
3116,526,119,124129,119231
3118,526,119,124137,119227
3121,524,119,124134,119230
3123,523,119,124138,119235
3126,522,119,124141,119236
3128,522,119,124153,119236
3130,522,119,124157,119244
3133,523,119,124166,119247
3135,523,119,124173,119249
3138,523,119,124180,119247
3140,522,119,124174,119245
3143,520,119,124181,119248
3145,515,119,124182,119247
3148,512,119,124194,119245
3150,510,119,124193,119250
3152,509,119,124206,119252
3155,509,119,124202,119249
3158,508,119,124206,119250
3161,506,119,124208,119256
3163,504,119,124215,119255
3166,501,119,124219,119270
3168,499,119,124228,119274
3170,498,119,124235,119273
3173,498,119,124240,119278
3175,498,119,124251,119274
3178,499,119,124253,119278
3180,499,119,124251,119285
3183,499,119,124260,119288
3185,497,119,124255,119296
3188,495,119,124260,119281
3190,493,119,124265,119288
3192,491,119,124270,119293
3195,491,119,124270,119291
3197,492,119,124275,119300
3201,492,119,124286,119296
3203,494,119,124284,119301
3206,494,119,124292,119305
3208,494,119,124293,119305
3210,495,119,124306,119312
3213,495,119,124318,119312
3215,495,119,124321,119315
3218,495,119,124325,119318
3220,496,119,124332,119322
3223,496,119,124332,119328
3225,496,119,124341,119334
3228,496,119,124337,119334
3230,495,119,124353,119341
3232,495,119,124366,119343
3235,494,119,124372,119345
3237,494,119,124375,119345
3240,494,120,124385,119357
3243,496,119,124391,119360
3246,498,119,124391,119355
3248,506,119,124395,119361
3250,516,119,124403,119361
3253,549,120,124412,119363
3255,565,120,124415,119367
3258,603,120,124416,119372
3260,620,120,124422,119364
3263,630,120,124437,119371
3265,635,120,124440,119374
3268,634,120,124440,119375
3270,624,120,124442,119376
3272,610,120,124445,119376
3275,561,120,124460,119389
3277,540,120,124460,119379
3280,511,120,124453,119384
3282,493,120,124471,119384
3286,476,120,124487,119390
3288,453,120,124484,119395
3290,446,120,124484,119398
3293,440,120,124502,119415
3295,439,120,124506,119415
3298,441,120,124508,119413
3300,452,120,124508,119413
3303,462,120,124512,119416
3305,469,120,124529,119416
3308,476,120,124538,119422
3310,485,119,124544,119428
3312,488,120,124544,119433
3315,490,120,124549,119437
3317,491,120,124553,119437
3320,491,120,124571,119435
3322,492,120,124570,119439
3325,493,120,124573,119444
3328,493,120,124573,119447
3330,494,120,124580,119453
3333,495,120,124583,119450
3335,496,120,124594,119450
3338,497,120,124595,119445
3340,497,120,124595,119445
3343,498,120,124602,119451
3345,498,120,124602,119451
3348,498,120,124601,119452
3350,498,120,124601,119447
3352,499,120,124605,119448
3355,499,120,124604,119446
3357,499,120,124604,119444
3360,499,120,124599,119441
3362,500,120,124608,119441
3365,500,120,124608,119448
3367,501,120,124621,119448
3369,501,119,124621,119453
3373,502,120,124621,119451
3375,502,119,124620,119450
3378,502,120,124629,119450
3380,503,120,124639,119449
3383,503,119,124634,119456
3385,503,119,124634,119450
3388,504,119,124642,119450
3390,504,120,124648,119450
3392,504,120,124647,119448
3395,505,119,124647,119448
3397,507,119,124649,119458
3400,507,119,124659,119458
3402,508,119,124662,119456
3405,509,119,124662,119442
3407,509,119,124651,119442
3409,509,119,124657,119446
3412,509,119,124657,119439
3415,509,119,124646,119439
3418,510,119,124634,119431
3420,511,119,124628,119439
3423,511,119,124628,119431
3425,511,119,124621,119424
3428,511,119,124591,119424
3430,509,119,124591,119410
3432,508,119,124581,119410
3435,507,119,124558,119410
3437,506,119,124558,119389
3440,505,119,124536,119387
3442,505,119,124520,119381
3445,505,119,124498,119381
3447,505,119,124477,119366
3449,505,119,124477,119365
3452,506,119,124432,119365
3454,506,119,124432,119344
3458,506,119,124411,119330
3460,507,119,124387,119328
3463,507,119,124371,119328
3465,507,119,124346,119321
3468,507,119,124333,119309
3470,507,119,124305,119301
3472,508,119,124291,119290
3475,508,119,124237,119285
3477,509,119,124237,119265
3480,510,119,124215,119260
3482,510,119,124197,119260
3485,511,119,124179,119249
3487,512,119,124146,119235
3489,512,119,124131,119225
3492,512,119,124113,119209
3494,513,119,124094,119207
3497,513,119,124063,119202
3500,513,119,124063,119182
3503,513,119,124049,119182
3505,512,118,124030,119177
3508,511,119,124017,119170
3510,511,118,124006,119167
3512,511,119,123997,119159
3515,511,119,123978,119155
3517,510,119,123976,119150
3520,509,119,123961,119144
3522,509,118,123967,119139
3525,508,118,123951,119143
3527,507,118,123939,119137
3529,506,118,123936,119133
3532,505,118,123926,119129
3534,505,118,123931,119126
3537,504,119,123912,119131
3539,504,118,123919,119126
3543,503,118,123916,119119
3545,502,118,123908,119125
3548,502,118,123908,119120
3550,503,118,123903,119126
3552,503,118,123900,119120
3555,503,118,123901,119128
3557,502,118,123894,119131
3560,502,118,123893,119119
3562,501,118,123897,119125
3565,500,118,123897,119123
3567,501,118,123898,119128
3569,501,118,123898,119119
3572,502,118,123899,119123
3574,501,118,123895,119120
3577,501,118,123901,119122
3579,501,118,123901,119130
3582,501,118,123898,119124
3585,501,118,123902,119130
3588,502,118,123897,119132
3590,502,118,123900,119130
3592,502,118,123909,119128
3595,502,118,123920,119132
3597,502,118,123922,119133
3600,502,118,123917,119129
3602,502,118,123920,119134
3605,503,118,123913,119137
3607,504,118,123907,119132
3609,506,118,123916,119135
3612,508,118,123924,119138
3614,509,118,123921,119136
3617,509,118,123942,119140
3619,509,118,123940,119153
3622,508,118,123945,119150
3624,507,118,123948,119150
3628,507,118,123952,119152
3630,508,118,123946,119154
3632,508,118,123970,119151
3635,509,118,123960,119157
3637,509,118,123961,119162
3640,508,118,123970,119162
3642,508,118,123981,119158
3645,506,118,123983,119157
3647,505,118,123993,119164
3649,504,118,123996,119171
3652,504,118,124009,119169
3654,504,118,124018,119182
3657,504,118,124025,119181
3659,505,118,124037,119194
3662,506,118,124049,119192
3664,507,118,124049,119194
3667,507,118,124063,119201
3670,507,118,124066,119196
3672,507,118,124076,119208
3675,507,118,124076,119211
3677,506,118,124095,119216
3680,506,118,124102,119221
3682,506,118,124108,119228
3685,506,118,124120,119220
3687,505,118,124118,119225
3689,505,118,124130,119231
3692,505,118,124132,119236
3694,505,118,124141,119237
3697,505,118,124146,119233
3699,505,118,124144,119232
3702,505,118,124156,119240
3704,505,118,124159,119232
3707,505,118,124160,119238
3709,504,118,124173,119233
3712,504,118,124171,119244
3715,504,118,124176,119236
3717,504,118,124181,119241
3720,503,118,124186,119237
3722,503,118,124187,119241
3725,503,118,124187,119247
3727,504,118,124202,119244
3729,504,118,124210,119244
3732,504,118,124216,119257
3734,504,118,124230,119260
3737,504,118,124241,119267
3739,504,118,124241,119267
3742,503,119,124248,119278
3744,503,118,124256,119279
3747,503,118,124256,119291
3749,503,118,124277,119293
3751,504,118,124277,119293
3755,505,119,124301,119300
3757,506,119,124307,119308
3760,508,119,124307,119319
3762,509,119,124325,119316
3765,511,118,124330,119316
3767,515,119,124335,119323
3769,516,119,124335,119326
3772,517,119,124339,119330
3774,517,119,124351,119330
3777,518,119,124359,119347
3779,521,119,124360,119333
3782,523,119,124360,119334
3784,525,119,124369,119344
3787,527,119,124382,119344
3789,528,119,124383,119351
3791,528,119,124383,119351
3794,525,119,124401,119350
3796,522,119,124409,119350
3800,519,119,124420,119366
3802,511,119,124413,119363
3805,509,119,124424,119372
3807,506,119,124424,119368
3809,505,119,124432,119372
3812,504,119,124434,119373
3814,504,119,124438,119373
3817,502,119,124450,119373
3819,501,119,124450,119377
3822,499,119,124452,119373
3824,500,119,124452,119373
3827,500,119,124470,119387
3829,500,119,124470,119379
3831,500,119,124476,119392
3834,498,119,124487,119385
3836,497,119,124487,119389
3840,496,119,124497,119391
3842,496,119,124493,119391
3845,495,119,124513,119391
3847,497,119,124513,119402
3849,499,119,124519,119407
3852,499,119,124526,119401
3854,500,119,124537,119401
3857,500,120,124537,119417
3859,500,120,124541,119417
3862,500,119,124557,119419
3864,499,120,124557,119426
3867,498,119,124563,119426
3869,498,120,124580,119426
3871,498,120,124587,119434
3874,499,120,124600,119442
3876,500,120,124608,119442
3879,500,119,124608,119449
3881,498,120,124611,119453
3885,498,120,124621,119453
3887,497,120,124621,119461
3889,497,120,124634,119464
3892,498,120,124642,119464
3894,499,120,124645,119465
3897,506,120,124645,119474
3899,513,120,124651,119475
3902,520,120,124658,119475
3904,529,120,124670,119475
3907,557,120,124670,119481
3909,571,120,124679,119481
3911,591,120,124678,119484
3914,618,120,124678,119489
3916,625,120,124676,119487
3919,628,120,124685,119487
3921,627,120,124691,119485
3924,610,120,124691,119489
3927,586,120,124694,119486
3929,565,120,124694,119486
3932,541,120,124701,119491
3934,521,120,124700,119485
3937,485,120,124700,119485
3939,470,120,124709,119486
3942,462,120,124706,119486
3944,455,120,124711,119496
3947,449,120,124711,119494
3949,443,120,124714,119490
3951,445,120,124719,119490
3954,450,120,124719,119485
3956,458,120,124721,119491
3959,465,120,124721,119482
3961,478,120,124733,119491
3964,482,120,124723,119491
3966,486,120,124732,119500
3969,488,120,124732,119497
3972,492,120,124740,119502
3974,493,120,124748,119502
3977,494,120,124754,119507
3979,495,120,124758,119500
3982,496,120,124749,119499
3984,499,120,124760,119506
3987,500,120,124762,119501
3989,501,120,124762,119493
3991,502,120,124763,119493
3994,502,120,124763,119501
3996,502,120,124766,119498
3999,501,120,124766,119504
4001,501,120,124778,119498
4004,501,120,124764,119496
4006,502,120,124767,119502
4008,504,120,124769,119491
4012,505,120,124776,119491
4014,506,120,124764,119488
4017,507,120,124762,119489
4019,507,120,124772,119487
4022,509,120,124772,119484
4024,508,120,124779,119485
4027,507,120,124775,119484
4029,505,120,124772,119482
4031,504,120,124777,119476
4034,503,120,124771,119478
4036,503,120,124769,119484
4039,503,120,124777,119488
4041,503,120,124773,119482
4044,503,120,124771,119480
4046,505,120,124785,119480
4048,506,120,124786,119480
4051,509,120,124789,119480
4054,509,120,124785,119481
4057,510,120,124782,119482
4059,510,120,124776,119480
4062,510,120,124775,119477
4064,510,120,124768,119475
4067,511,120,124766,119478
4069,511,120,124756,119459
4071,512,120,124750,119464
4074,512,120,124736,119466
4076,512,120,124732,119451
4079,511,119,124722,119459
4081,510,120,124722,119451
4084,510,119,124702,119451
4086,510,119,124680,119438
4088,511,120,124661,119434
4091,511,120,124651,119428
4093,511,119,124638,119430
4097,511,119,124616,119415
4099,511,119,124600,119410
4102,510,120,124586,119408
4104,509,119,124560,119396
4107,509,119,124530,119388
4109,508,119,124520,119384
4111,507,119,124512,119380
4114,507,119,124485,119367
4116,508,119,124461,119359
4119,508,119,124446,119352
4121,509,119,124427,119347
4124,509,119,124412,119342
4126,509,119,124390,119335
4128,509,119,124376,119329
4131,509,119,124354,119319
4133,510,119,124330,119314
4136,510,119,124316,119303
4139,511,119,124302,119303
4142,512,119,124278,119291
4144,514,119,124262,119284
4147,514,119,124244,119282
4149,514,119,124233,119273
4151,515,119,124226,119266
4154,516,119,124196,119259
4156,517,119,124179,119255
4159,517,119,124168,119240
4161,517,119,124158,119241
4164,517,119,124147,119231
4166,517,119,124133,119227
4168,516,119,124125,119216
4171,515,119,124108,119217
4173,514,119,124100,119199
4176,513,119,124089,119201
4178,513,119,124080,119200
4182,513,119,124068,119195
4184,512,119,124064,119186
4187,511,120,124055,119189
4189,510,119,124052,119184
4191,510,119,124043,119182
4194,509,119,124040,119173
4196,508,119,124027,119172
4199,509,119,124028,119174
4201,509,119,124028,119169
4204,509,119,124024,119171
4206,509,119,124014,119160
4208,510,119,124017,119160
4211,510,120,124011,119166
4213,511,119,124008,119159
4216,510,119,124012,119162
4218,509,119,124009,119162
4221,509,119,124007,119163
4224,508,119,124010,119173
4227,508,120,124010,119170
4229,508,119,124015,119165
4231,509,119,124010,119165
4234,508,120,124015,119175
4236,509,119,124012,119169
4239,508,119,124012,119170
4241,508,119,124007,119169
4244,508,119,124015,119169
4246,509,119,124012,119167
4248,510,119,124009,119164
4251,510,119,124006,119162
4253,510,119,124006,119167
4256,511,120,124000,119166
4258,512,119,124005,119163
4261,512,120,124005,119161
4263,512,120,124010,119156
4267,513,120,124005,119156
4269,513,120,124012,119156
4271,514,120,124015,119147
4274,515,120,124012,119153
4276,514,120,124012,119155
4279,514,120,124023,119154
4281,513,120,124024,119159
4284,513,119,124024,119153
4286,514,119,124038,119158
4288,514,120,124036,119158
4291,516,120,124047,119166
4293,516,120,124047,119171
4296,516,119,124066,119171
4298,516,120,124072,119171
4301,515,120,124080,119178
4303,515,120,124087,119177
4306,516,120,124087,119187
4308,517,120,124098,119182
4311,518,120,124109,119182
4314,518,120,124116,119180
4316,517,120,124116,119184
4319,516,120,124117,119191
4321,516,120,124127,119191
4324,516,120,124137,119191
4326,516,120,124137,119191
4328,515,120,124148,119197
4331,514,120,124145,119197
4333,514,120,124163,119201
4336,514,120,124162,119203
4338,513,120,124162,119206
4341,512,120,124160,119200
4343,512,120,124166,119200
4346,511,120,124176,119203
4348,510,120,124176,119197
4350,509,120,124179,119201
4354,511,120,124173,119201
4356,513,120,124185,119205
4359,514,120,124182,119212
4361,519,120,124182,119206
4364,522,120,124183,119207
4366,524,120,124193,119207
4368,524,120,124199,119205
4371,524,120,124198,119209
4373,523,120,124203,119209
4376,520,120,124203,119199
4378,520,120,124198,119207
4381,521,120,124209,119207
4383,523,120,124209,119210
4386,524,120,124225,119214
4388,524,120,124214,119214
4390,524,120,124220,119212
4393,520,120,124220,119213
4396,516,120,124222,119215
4399,514,120,124229,119215
4401,512,120,124239,119215
4404,512,120,124239,119219
4406,512,120,124235,119219
4408,512,120,124237,119223
4411,510,120,124237,119227
4413,507,120,124242,119227
4416,505,120,124247,119227
4418,504,120,124253,119231
4421,503,120,124253,119234
4423,502,120,124258,119236
4426,502,120,124260,119236
4428,501,120,124274,119239
4430,500,120,124272,119239
4433,500,120,124272,119242
4435,499,120,124280,119256
4439,499,120,124280,119256
4441,498,120,124290,119258
4444,498,120,124290,119263
4446,496,120,124291,119262
4448,497,120,124302,119262
4451,497,120,124320,119269
4453,497,120,124321,119281
4456,498,120,124321,119283
4458,499,120,124336,119283
4461,500,120,124336,119288
4463,501,120,124349,119290
4466,501,120,124349,119295
4468,501,120,124359,119301
4470,502,120,124365,119301
4473,502,120,124375,119303
4475,504,120,124380,119309
4478,504,120,124390,119319
4481,505,120,124397,119319
4484,504,120,124413,119325
4486,502,120,124417,119332
4488,501,120,124417,119326
4491,499,120,124433,119326
4493,497,120,124424,119335
4496,496,120,124438,119324
4498,502,120,124439,119331
4501,508,120,124455,119341
4503,520,120,124441,119339
4506,533,120,124449,119340
4508,556,120,124465,119345
4510,583,120,124464,119343
4513,606,120,124469,119349
4515,626,120,124476,119351
4518,627,120,124483,119355
4520,627,120,124486,119354
4524,623,120,124497,119361
4526,594,120,124499,119363
4528,577,120,124504,119364
4531,556,120,124497,119369
4533,538,120,124520,119372
4536,513,120,124527,119372
4538,492,120,124534,119371
4541,475,120,124540,119372
4543,460,120,124541,119378
4546,455,120,124545,119377
4548,449,120,124542,119376
4550,446,120,124557,119385
4553,444,120,124552,119392
4555,452,120,124559,119391
4558,460,120,124570,119395
4560,468,120,124581,119389
4563,477,120,124583,119393
4566,484,120,124591,119392
4568,489,120,124587,119390
4571,493,120,124589,119384
4573,494,120,124600,119391
4576,495,120,124594,119383
4578,496,120,124604,119393
4581,497,120,124598,119394
4583,498,120,124592,119390
4586,498,120,124601,119403
4588,499,120,124611,119393
4590,500,120,124614,119396
4593,501,120,124624,119389
4595,502,120,124628,119395
4598,503,120,124632,119397
4600,503,121,124637,119401
4603,504,120,124632,119404
4605,504,120,124641,119400
4608,505,120,124650,119403
4611,505,120,124646,119410
4613,505,120,124652,119411
4616,505,120,124665,119412
4618,506,121,124668,119418
4621,508,120,124676,119419
4623,508,120,124680,119419
4626,508,121,124680,119417
4628,509,121,124681,119429
4630,509,121,124689,119425
4633,509,120,124674,119428
4635,510,120,124691,119437
4638,511,120,124695,119431
4640,511,120,124702,119436
4643,511,121,124707,119432
4645,510,120,124720,119444
4647,510,120,124713,119444
4651,510,121,124720,119449
4653,510,121,124727,119443
4656,510,121,124736,119443
4658,511,121,124727,119452
4661,512,120,124721,119453
4663,513,121,124728,119448
4666,513,121,124735,119454
4668,513,121,124738,119464
4670,512,121,124733,119452
4673,511,121,124729,119450
4675,510,120,124726,119456
4678,510,121,124721,119447
4680,510,121,124715,119439
4683,510,121,124703,119443
4685,509,121,124710,119442
4687,509,121,124681,119434
4690,510,121,124684,119431
4692,509,121,124671,119422
4696,509,121,124651,119419
4698,508,121,124638,119416
4701,508,121,124622,119409
4703,509,121,124611,119399
4706,509,121,124591,119398
4708,508,121,124580,119390
4710,507,121,124569,119386
4713,506,121,124538,119378
4715,506,121,124525,119362
4718,506,120,124525,119358
4720,506,121,124492,119352
4723,506,121,124471,119352
4725,507,121,124467,119345
4727,508,121,124451,119331
4730,510,121,124422,119322
4732,511,121,124416,119321
4736,512,121,124395,119317
4738,512,121,124381,119310
4741,513,121,124381,119310
4743,513,121,124343,119291
4746,513,121,124330,119291
4748,513,121,124331,119283
4750,513,121,124306,119276
4753,513,121,124290,119265
4755,514,121,124290,119263
4758,514,121,124264,119259
4760,514,121,124258,119248
4763,514,121,124258,119248
4765,513,121,124240,119246
4767,513,121,124228,119246
4770,512,121,124227,119239
4772,512,121,124227,119228
4775,512,121,124209,119231
4777,512,121,124196,119231
4781,512,121,124201,119220
4783,512,121,124188,119223
4786,512,121,124187,119222
4788,512,121,124185,119223
4790,512,121,124185,119218
4793,511,121,124168,119222
4795,510,121,124167,119215
4798,510,121,124167,119219
4800,510,121,124167,119219
4803,510,121,124163,119217
4805,510,121,124159,119214
4807,509,121,124159,119218
4810,508,121,124157,119214
4812,507,121,124149,119214
4815,506,121,124153,119207
4817,506,121,124153,119201
4820,506,121,124150,119202
4823,506,121,124137,119202
4826,506,121,124141,119204
4828,506,121,124135,119195
4830,506,121,124135,119195
4833,506,121,124142,119199
4835,506,121,124138,119199
4838,506,121,124143,119195
4840,507,121,124143,119202
4843,508,121,124133,119195
4845,508,121,124137,119195
4847,508,121,124149,119199
4850,507,121,124148,119202
4852,508,121,124147,119202
4855,509,121,124147,119197
4857,509,121,124149,119203
4860,511,121,124146,119203
4862,512,121,124146,119206
4866,513,121,124161,119213
4868,513,121,124164,119213
4870,513,121,124179,119212
4873,514,121,124183,119223
4875,514,121,124190,119223
4878,514,121,124190,119226
4880,513,121,124194,119234
4883,514,121,124193,119234
4885,513,121,124193,119233
4887,513,121,124215,119235
4890,514,121,124216,119235
4892,513,121,124236,119241
4895,513,121,124236,119249
4897,513,121,124249,119249
4900,512,121,124249,119251
4902,511,121,124254,119253
4905,511,121,124262,119253
4908,511,121,124262,119260
4910,511,121,124274,119260
4913,511,121,124291,119279
4915,511,121,124291,119268
4918,512,121,124307,119272
4920,513,121,124302,119268
4923,515,121,124301,119268
4925,516,121,124309,119269
4927,519,121,124309,119274
4930,520,121,124323,119274
4932,521,121,124326,119278
4935,521,121,124326,119285
4937,520,121,124330,119281
4940,520,121,124339,119281
4942,520,121,124343,119286
4945,522,121,124343,119292
4947,524,121,124349,119297
4950,526,121,124350,119297
4953,526,121,124362,119291
4955,525,121,124372,119302
4958,524,121,124372,119295
4960,518,121,124378,119296
4963,514,122,124377,119300
4965,511,121,124379,119304
4967,509,122,124379,119305
4970,507,121,124389,119312
4972,507,121,124393,119312
4975,506,121,124398,119310
4977,504,121,124403,119314
4980,502,121,124410,119309
4982,498,121,124413,119320
4985,497,121,124420,119319
4987,497,121,124416,119323
4989,497,121,124416,119324
4993,496,121,124425,119324
4995,496,121,124427,119316
4998,496,121,124434,119321
5000,496,121,124435,119318
5003,496,121,124433,119329
5005,496,121,124444,119325
5007,496,121,124442,119320
5010,497,121,124443,119333
5012,497,121,124449,119326
5015,497,121,124458,119331
5017,496,121,124454,119333
5020,495,121,124448,119339
5022,495,121,124465,119330
5025,495,121,124471,119334
5027,496,121,124472,119333
5029,497,121,124480,119337
5032,497,121,124477,119342
5035,497,121,124483,119344
5038,497,121,124485,119337
5040,496,122,124478,119345
5043,496,121,124488,119342
5045,496,121,124492,119340
5047,496,121,124492,119342
5050,495,121,124507,119349
5052,494,121,124515,119347
5055,493,121,124503,119341
5057,492,122,124520,119347
5060,493,121,124521,119351
5062,497,121,124515,119346
5065,502,121,124526,119357
5067,509,121,124521,119345
5069,519,122,124536,119359
5072,552,121,124540,119361
5074,575,121,124539,119365
5078,597,121,124554,119369
5080,612,121,124551,119371
5083,626,122,124559,119372
5085,632,122,124564,119371
5087,634,122,124571,119380
5090,619,121,124573,119379
5092,603,122,124577,119385
5095,583,122,124588,119386
5097,553,122,124600,119392
5100,524,122,124606,119395
5102,490,122,124607,119400
5105,474,122,124606,119395
5107,461,122,124614,119405
5109,452,122,124618,119404
5112,444,122,124633,119409
5114,441,122,124633,119410
5117,442,121,124640,119409
5120,452,122,124633,119409
5123,459,122,124652,119419
5125,467,121,124643,119415
5127,473,121,124662,119423
5130,482,121,124656,119428
5132,484,122,124659,119428
5135,486,121,124662,119421
5137,488,122,124667,119423
5140,490,121,124679,119419
5142,491,122,124675,119428
5145,492,122,124684,119430
5147,493,122,124679,119432
5149,494,121,124689,119436
5152,494,121,124690,119441
5154,494,121,124692,119440
5157,494,121,124705,119443
5159,494,122,124705,119446
5163,495,121,124705,119446
5165,495,121,124715,119448
5167,496,122,124717,119450
5170,499,121,124725,119458
5172,501,121,124735,119459
5175,501,122,124740,119460
5177,501,122,124747,119460
5180,501,122,124741,119464
5182,501,121,124740,119463
5185,502,122,124747,119459
5187,502,122,124749,119465
5189,503,122,124760,119466
5192,503,122,124765,119463
5194,503,121,124772,119473
5197,503,122,124773,119481
5199,504,122,124788,119472
5202,504,122,124782,119473
5204,505,122,124783,119476
5207,506,122,124791,119475
5210,506,122,124797,119478
5212,506,122,124796,119483
5215,506,122,124799,119478
5217,507,122,124804,119473
5220,508,122,124804,119487
5222,509,122,124810,119480
5225,509,122,124810,119480
5227,508,122,124823,119486
5229,508,122,124815,119486
5232,508,122,124824,119487
5234,508,122,124821,119484
5237,509,122,124820,119492
5239,510,122,124820,119490
5242,510,122,124820,119487
5244,511,122,124817,119482
5246,512,122,124808,119482
5250,510,122,124807,119489
5252,509,122,124796,119469
5255,508,122,124790,119479
5257,508,122,124790,119469
5260,507,122,124757,119464
5262,508,122,124755,119462
5265,508,122,124755,119455
5267,507,122,124724,119456
5269,507,122,124696,119456
5272,507,122,124699,119440
5274,506,122,124699,119431
5277,506,122,124669,119426
5279,506,122,124635,119426
5282,506,122,124635,119421
5284,506,122,124605,119403
5286,506,122,124605,119404
5289,506,122,124579,119397
5292,507,122,124564,119397
5295,508,122,124563,119383
5297,510,122,124563,119389
5300,511,122,124538,119377
5302,511,122,124516,119377
5305,510,122,124509,119370
5307,510,122,124489,119355
5309,510,122,124489,119357
5312,511,122,124465,119352
5314,512,122,124462,119352
5317,512,122,124449,119347
5319,514,122,124449,119336
5322,515,122,124426,119334
5324,515,122,124421,119334
5326,515,122,124410,119330
5329,513,122,124393,119323
5331,513,122,124382,119323
5335,512,122,124376,119309
5337,513,122,124376,119311
5340,514,122,124376,119305
5342,514,122,124361,119305
5345,514,122,124357,119310
5347,513,122,124357,119297
5349,512,122,124351,119296
5352,512,122,124339,119296
5354,511,122,124336,119294
5357,510,122,124325,119294
5359,508,122,124325,119282
5362,508,122,124321,119279
5364,508,122,124321,119279
5366,508,122,124309,119278
5369,508,123,124309,119263
5371,507,122,124308,119273
5374,506,122,124293,119273
5377,506,122,124305,119270
5380,506,122,124305,119267
5382,506,123,124297,119267
5385,507,122,124300,119270
5387,508,122,124300,119274
5389,508,122,124303,119271
5392,509,123,124298,119271
5394,508,123,124301,119283
5397,508,122,124301,119277
5399,507,122,124300,119276
5402,507,123,124308,119276
5404,507,122,124306,119282
5406,508,123,124308,119277
5409,508,123,124308,119280
5411,508,122,124304,119280
5414,508,122,124303,119280
5416,507,123,124303,119277
5420,508,123,124303,119277
5422,509,122,124303,119282
5425,510,122,124303,119282
5427,511,123,124311,119280
5429,511,123,124311,119283
5432,509,122,124311,119278
5434,509,122,124308,119281
5437,510,123,124309,119281
5439,510,122,124311,119283
5442,511,123,124311,119285
5444,512,123,124322,119284
5446,514,123,124325,119284
5449,514,123,124331,119290
5451,515,122,124331,119294
5454,514,123,124331,119289
5456,513,122,124342,119289
5459,513,123,124338,119298
5462,513,122,124358,119298
5465,513,123,124358,119302
5467,512,122,124364,119311
5469,513,123,124373,119311
5472,512,122,124379,119317
5474,512,122,124385,119312
5477,512,122,124390,119316
5479,511,122,124397,119312
5482,511,122,124409,119317
5484,510,122,124411,119320
5486,511,122,124411,119327
5489,510,122,124428,119327
5491,510,123,124422,119329
5494,510,122,124437,119333
5496,511,122,124443,119331
5499,511,122,124448,119332
5501,511,122,124450,119340
5505,511,122,124446,119338
5507,510,122,124458,119339
5509,507,123,124453,119343
5512,506,122,124457,119343
5514,505,122,124465,119334
5517,504,122,124470,119346
5519,505,122,124477,119342
5522,505,122,124482,119350
5524,505,122,124476,119340
5526,506,122,124475,119341
5529,508,122,124473,119339
5531,512,122,124483,119341
5534,515,122,124477,119343
5536,518,122,124483,119349
5539,518,122,124497,119353
5541,518,122,124506,119351
5544,517,122,124502,119352
5547,517,122,124510,119356
5549,519,122,124514,119360
5552,521,122,124518,119365
5554,522,122,124517,119362
5557,523,122,124525,119369
5559,525,122,124522,119367
5562,524,122,124520,119368
5564,523,122,124527,119371
5566,520,122,124529,119369
5569,514,122,124538,119365
5571,512,122,124540,119369
5574,511,122,124540,119369
5576,509,122,124538,119375
5579,508,122,124540,119363
5581,504,122,124539,119372
5584,502,122,124543,119373
5586,500,122,124554,119374
5588,499,122,124559,119377
5592,499,122,124567,119376
5594,499,122,124576,119385
5597,498,122,124568,119372
5599,496,122,124571,119375
5602,496,122,124575,119384
5604,494,122,124575,119381
5606,494,122,124581,119392
5609,495,122,124583,119380
5611,495,121,124586,119389
5614,495,122,124588,119386
5616,494,122,124593,119389
5619,494,122,124608,119387
5621,494,122,124602,119396
5624,494,122,124605,119397
5626,495,122,124599,119402
5628,495,122,124617,119407
5632,495,122,124612,119399
5634,495,122,124610,119397
5637,496,121,124613,119395
5639,497,121,124618,119390
5642,499,121,124621,119391
5644,499,121,124622,119394
5646,499,122,124628,119396
5649,497,121,124635,119402
5651,497,121,124638,119407
5654,496,121,124630,119408
5656,494,121,124638,119401
5659,493,121,124637,119394
5661,493,121,124633,119401
5664,495,121,124649,119386
5666,498,121,124644,119389
5668,503,121,124648,119392
5671,512,121,124650,119398
5673,534,121,124654,119396
5677,550,121,124652,119400
5679,576,121,124656,119399
5682,609,121,124660,119401
5684,623,121,124673,119401
5686,635,121,124666,119394
5689,639,121,124675,119399
5691,636,121,124678,119389
5694,626,121,124681,119401
5696,603,121,124684,119406
5699,581,121,124690,119399
5701,532,121,124687,119406
5704,508,121,124700,119404
5706,490,121,124699,119403
5708,471,121,124713,119403
5711,452,121,124712,119412
5713,445,121,124710,119408
5716,440,121,124710,119420
5719,439,121,124721,119420
5722,441,121,124729,119420
5724,455,121,124735,119425
5726,462,121,124735,119416
5729,474,121,124730,119417
5731,478,121,124730,119418
5734,483,121,124737,119423
5736,486,121,124747,119423
5739,487,121,124747,119418
5741,488,121,124746,119417
5744,489,121,124751,119417
5746,490,121,124754,119422
5748,491,121,124747,119412
5751,492,121,124753,119422
5753,493,121,124753,119416
5756,494,121,124754,119421
5758,494,121,124755,119421
5762,495,121,124768,119419
5764,497,121,124765,119420
5766,499,121,124765,119427
5769,500,121,124776,119430
5771,502,121,124775,119430
5774,503,121,124787,119435
5776,503,121,124787,119435
5779,503,121,124786,119438
5781,503,121,124794,119438
5784,502,121,124798,119441
5786,503,121,124805,119440
5788,504,121,124805,119451
5791,504,121,124807,119448
5793,505,121,124811,119448
5796,505,121,124818,119461
5798,505,121,124818,119451
5801,505,120,124822,119457
5804,505,120,124821,119457
5806,505,120,124819,119450
5809,505,120,124833,119449
5811,504,120,124833,119452
5814,504,120,124832,119447
5816,504,121,124821,119447
5819,503,120,124831,119455
5821,503,120,124831,119444
5824,504,120,124827,119448
5826,504,120,124824,119448
5828,505,120,124829,119448
5831,506,120,124828,119448
5833,507,120,124823,119448
5836,508,120,124820,119448
5838,509,120,124820,119458
5841,510,120,124825,119453
5843,511,120,124824,119460
5846,512,120,124824,119458
5849,512,120,124809,119458
5851,510,120,124803,119451
5854,508,120,124788,119443
5856,507,120,124788,119441
5859,507,120,124773,119441
5861,507,120,124773,119433
5864,508,120,124761,119429
5866,509,120,124728,119429
5868,509,120,124729,119419
5871,509,120,124702,119410
5873,509,120,124693,119410
5876,508,120,124693,119396
5878,508,120,124678,119390
5881,508,120,124622,119390
5883,507,120,124622,119371
5885,505,120,124608,119363
5889,505,120,124563,119363
5891,504,120,124549,119350
5894,506,120,124549,119330
5896,506,120,124506,119330
5899,507,120,124506,119308
5901,507,120,124480,119300
5904,508,120,124437,119300
5906,509,120,124437,119278
5908,510,120,124426,119268
5911,510,120,124383,119272
5913,511,120,124383,119263
5916,511,120,124360,119256
5918,512,120,124348,119249
5921,512,120,124326,119249
5923,512,120,124311,119247
5925,512,120,124311,119226
5928,513,120,124278,119226
5931,513,120,124268,119229
5934,513,120,124268,119219
5936,514,120,124263,119209
5939,515,120,124257,119209
5941,516,120,124240,119211
5944,517,120,124240,119208
5946,517,120,124225,119208
5948,516,120,124225,119197
5951,512,120,124214,119197
5953,511,120,124207,119198
5956,509,120,124206,119190
5958,509,120,124200,119189
5961,508,120,124194,119189
5963,508,120,124193,119191
5965,507,120,124193,119186
5968,507,120,124186,119182
5970,506,120,124184,119179
5974,506,120,124168,119173
5976,506,120,124168,119169
5979,506,120,124167,119162
5981,506,120,124170,119162
5984,507,120,124164,119166
5986,506,120,124165,119172
5988,505,120,124153,119161
5991,505,120,124160,119162
5993,506,120,124154,119164
5996,506,120,124155,119163
5998,506,120,124160,119163
6001,507,120,124164,119160
6003,507,120,124170,119162
6005,507,120,124173,119162
6008,507,120,124158,119167
6010,508,120,124165,119162
6013,508,120,124172,119166
6016,509,120,124173,119160
6019,510,120,124164,119165
6021,511,120,124167,119163
6024,511,120,124165,119165
6026,511,120,124167,119169
6028,511,120,124174,119177
6031,511,120,124179,119170
6033,513,120,124181,119177
6036,513,120,124180,119179
6038,513,120,124192,119179
6041,513,120,124208,119179
6043,513,120,124201,119182
6045,513,120,124209,119189
6048,513,120,124216,119180
6050,514,120,124214,119195
6053,514,120,124221,119200
6055,514,120,124229,119211
6059,514,120,124236,119208
6061,513,120,124250,119216
6064,512,120,124258,119217
6066,513,120,124275,119223
6068,513,120,124281,119224
6071,515,120,124294,119230
6073,514,120,124298,119233
6076,513,120,124301,119240
6078,512,120,124303,119235
6081,511,120,124320,119241
6083,510,120,124318,119244
6085,510,120,124329,119246
6088,510,120,124336,119242
6090,509,120,124346,119245
6093,510,120,124352,119245
6095,510,120,124358,119247
6098,510,120,124359,119250
6100,510,120,124364,119252
6104,511,120,124369,119245
6106,512,120,124369,119252
6108,512,120,124368,119255
6111,512,120,124382,119250
6113,512,120,124391,119255
6116,511,120,124386,119262
6118,511,120,124406,119273
6121,510,121,124406,119273
6123,508,120,124416,119279
6125,508,120,124427,119276
6128,508,120,124433,119284
6130,507,120,124437,119286
6133,506,120,124444,119285
6135,506,120,124451,119302
6138,506,120,124454,119292
6140,507,120,124467,119303
6144,510,120,124468,119301
6146,515,120,124471,119310
6148,517,121,124487,119324
6151,518,121,124490,119323
6153,519,120,124495,119331
6156,519,121,124499,119330
6158,519,121,124507,119343
6161,519,120,124503,119330
6163,520,121,124510,119330
6165,521,121,124524,119342
6168,521,121,124520,119342
6170,522,121,124522,119345
6173,523,121,124525,119351
6175,524,121,124540,119351
6178,523,121,124538,119345
6180,520,121,124548,119348
6183,517,121,124549,119355
6185,512,121,124553,119358
6188,510,121,124552,119354
6191,509,121,124559,119354
6193,508,121,124561,119357
6196,505,121,124566,119356
6198,503,121,124566,119361
6201,501,121,124566,119365
6203,500,121,124568,119363
6205,500,121,124578,119363
6208,497,121,124589,119372
6210,496,121,124602,119377
6213,495,121,124602,119381
6215,495,121,124600,119375
6218,495,121,124601,119370
6220,496,121,124608,119379
6223,496,121,124608,119380
6225,497,121,124615,119378
6227,496,121,124616,119378
6231,495,121,124635,119387
6233,495,121,124636,119387
6236,495,121,124636,119384
6238,496,121,124633,119390
6241,496,121,124638,119390
6243,497,121,124655,119394
6245,497,121,124655,119399
6248,497,121,124655,119394
6250,497,121,124673,119394
6253,497,121,124675,119397
6255,498,121,124678,119398
6258,498,121,124678,119403
6260,499,121,124678,119401
6263,499,121,124682,119401
6265,498,121,124695,119406
6267,497,121,124695,119398
6270,495,121,124691,119401
6273,494,121,124695,119401
6276,493,121,124708,119407
6278,493,121,124704,119400
6281,494,121,124712,119409
6283,499,121,124712,119406
6285,505,121,124715,119410
6288,515,121,124723,119407
6290,524,121,124723,119407
6293,560,121,124739,119415
6295,579,121,124739,119424
6298,604,121,124751,119428
6300,618,121,124756,119428
6303,627,121,124770,119428
6305,633,121,124767,119427
6307,631,121,124767,119432
6310,617,121,124775,119435
6312,601,121,124777,119435
6316,576,121,124782,119435
6318,533,121,124782,119436
6321,508,121,124784,119443
6323,492,121,124787,119443
6325,477,121,124802,119439
6328,457,121,124802,119439
6330,449,121,124804,119438
6333,446,121,124817,119438
6335,445,121,124814,119444
6338,448,121,124818,119446
6340,461,121,124818,119451
6343,471,121,124818,119440
6345,477,121,124827,119440
6347,482,121,124827,119448
6350,487,121,124828,119445
6352,488,121,124827,119445
6355,489,121,124827,119440
6358,490,121,124835,119449
6361,491,121,124838,119449
6363,492,121,124838,119439
6365,494,121,124840,119453
6368,496,121,124860,119453
6370,498,121,124823,119452
6373,500,121,124860,119459
6375,501,121,124869,119459
6378,502,121,124869,119461
6380,503,121,124867,119478
6383,503,121,124881,119478
6385,502,121,124881,119471
6387,502,121,124894,119476
6390,502,121,124901,119476
6392,501,121,124906,119484
6395,501,121,124906,119485
6397,502,121,124914,119488
6401,503,121,124908,119488
6403,503,121,124926,119493
6405,504,121,124926,119494
6408,505,121,124921,119494
6410,506,121,124928,119499
6413,508,121,124928,119499
6415,509,121,124935,119506
6418,510,121,124940,119506
6420,510,121,124940,119504
6423,508,121,124940,119498
6425,507,121,124940,119495
6427,507,121,124935,119495
6430,507,121,124941,119494
6432,507,121,124943,119503
6435,507,121,124943,119498
6437,507,121,124954,119494
6440,507,121,124943,119494
6443,507,121,124939,119487
6445,507,121,124939,119503
6448,509,121,124941,119494
6450,510,121,124947,119494
6453,511,121,124940,119496
6455,512,121,124938,119488
6458,512,121,124939,119491
6460,512,121,124940,119489
6463,511,121,124937,119489
6465,511,121,124926,119494
6467,511,121,124926,119484
6470,510,121,124910,119479
6472,509,121,124910,119479
6475,509,121,124899,119482
6477,509,120,124883,119478
6480,509,121,124870,119473
6482,509,121,124867,119476
6484,509,121,124850,119468
6488,510,121,124830,119471
6490,510,121,124819,119456
6493,510,121,124791,119459
6495,510,121,124791,119443
6498,510,121,124773,119443
6500,511,121,124752,119440
6503,510,121,124753,119429
6505,510,121,124730,119426
6507,510,121,124719,119420
6510,510,121,124706,119420
6512,509,121,124686,119409
6515,509,121,124670,119406
6517,510,121,124661,119392
6520,511,121,124640,119387
6522,513,121,124632,119387
6524,514,121,124618,119371
6528,515,121,124597,119378
6530,516,121,124588,119365
6533,516,121,124580,119354
6535,515,121,124561,119343
6538,514,121,124530,119337
6540,513,121,124526,119333
6543,513,121,124510,119327
6545,513,121,124501,119309
6547,513,121,124487,119313
6550,515,121,124474,119301
6552,516,121,124473,119293
6555,515,121,124462,119292
6557,515,121,124443,119282
6560,515,121,124437,119269
6562,515,121,124422,119272
6564,515,121,124415,119271
6567,516,121,124411,119271
6569,515,121,124404,119265
6573,513,121,124403,119265
6575,511,121,124400,119259
6578,509,121,124389,119256
6580,509,121,124380,119252
6583,508,121,124382,119255
6585,508,121,124371,119256
6587,508,121,124368,119247
6590,508,121,124361,119250
6592,508,121,124375,119257
6595,508,121,124360,119250
6597,508,121,124358,119246
6600,507,121,124358,119246
6602,506,121,124350,119244
6604,506,121,124358,119243
6607,507,121,124351,119242
6609,507,121,124347,119238
6612,509,121,124338,119236
6615,509,121,124340,119240
6618,509,121,124346,119236
6620,509,121,124342,119236
6623,510,121,124338,119224
6625,510,121,124336,119227
6627,510,121,124336,119230
6630,510,121,124333,119223
6632,509,121,124340,119235
6635,509,121,124337,119231
6637,510,121,124335,119237
6640,511,121,124340,119237
6642,512,121,124342,119233
6644,512,121,124343,119235
6647,512,121,124341,119244
6649,512,121,124347,119238
6652,513,121,124346,119234
6654,513,121,124345,119233
6658,512,121,124352,119234
6660,513,121,124350,119241
6663,513,121,124353,119237
6665,513,121,124365,119241
6667,514,121,124365,119242
6670,515,121,124367,119248
6672,515,121,124373,119241
6675,514,121,124378,119253
6677,513,121,124381,119248
6680,513,121,124389,119248
6682,512,121,124386,119250
6684,511,121,124396,119254
6687,511,121,124408,119261
6689,511,121,124409,119247
6692,512,121,124420,119262
6694,512,121,124420,119260
6697,512,121,124423,119257
6700,512,121,124437,119265
6703,512,121,124438,119263
6705,510,121,124444,119267
6707,509,121,124444,119272
6710,508,121,124453,119275
6712,507,121,124457,119271
6715,506,121,124457,119274
6717,506,121,124463,119277
6720,507,121,124474,119277
6722,507,121,124488,119284
6724,507,121,124486,119282
6727,506,121,124490,119283
6729,505,121,124490,119287
6732,505,121,124497,119292
6734,506,121,124507,119297
6737,506,121,124507,119298
6739,506,121,124519,119300
6743,506,121,124519,119300
6745,506,121,124534,119311
6747,505,121,124533,119307
6750,504,121,124546,119309
6752,504,121,124546,119322
6755,504,121,124549,119326
6757,504,121,124546,119329
6760,505,121,124546,119326
6762,507,121,124560,119327
6764,508,121,124570,119327
6767,512,121,124578,119328
6769,513,121,124578,119340
6772,515,121,124577,119342
6774,516,121,124584,119342
6777,517,121,124598,119341
6779,519,121,124602,119345
6782,520,121,124604,119350
6785,522,121,124603,119346
6787,523,121,124611,119346
6790,524,121,124607,119357
6792,524,121,124607,119351
6795,524,121,124622,119358
6797,524,121,124624,119358
6800,523,121,124622,119356
6802,517,121,124633,119359
6804,515,121,124633,119369
6807,512,121,124639,119363
6809,511,121,124640,119363
6812,509,121,124645,119363
6814,506,121,124645,119370
6817,504,121,124642,119371
6819,503,121,124649,119371
6822,501,121,124656,119371
6824,499,121,124656,119367
6827,498,121,124657,119371
6830,498,121,124667,119371
6832,498,121,124668,119371
6835,498,121,124670,119381
6837,497,121,124670,119377
6840,496,121,124685,119379
6842,496,121,124691,119379
6844,495,121,124701,119389
6847,496,121,124708,119394
6849,496,121,124703,119394
6852,496,121,124703,119398
6854,495,121,124714,119403
6857,495,121,124720,119403
6859,496,121,124720,119409
6862,495,121,124732,119407
6864,496,121,124739,119407
6866,495,121,124751,119403
6870,495,121,124750,119416
6872,496,121,124752,119416
6875,497,121,124752,119410
6877,498,121,124760,119418
6880,499,121,124764,119418
6882,499,121,124764,119422
6884,498,121,124779,119424
6887,497,121,124775,119424
6889,496,121,124778,119423
6892,495,121,124778,119423
6894,495,121,124779,119426
6897,495,121,124789,119426
6899,496,121,124793,119422
6902,498,121,124793,119423
6904,500,121,124790,119423
6906,506,121,124794,119428
6909,524,121,124794,119422
6912,543,121,124794,119423
6915,561,121,124801,119423
6917,583,121,124810,119430
6920,616,121,124810,119423
6922,627,121,124801,119420
6924,630,121,124801,119420
6927,631,121,124814,119418
6929,629,121,124814,119427
6932,602,121,124814,119421
6934,576,121,124826,119418
6937,556,121,124827,119418
6939,535,121,124828,119420
6942,513,121,124828,119417
6944,478,121,124825,119415
6946,468,121,124824,119415
6949,458,121,124835,119422
6951,451,121,124834,119434
6955,446,121,124836,119424
6957,443,121,124839,119427
6960,447,121,124847,119428
6962,454,121,124852,119436
6964,462,121,124852,119444
6967,477,120,124860,119444
6969,482,121,124859,119444
6972,486,120,124866,119440
6974,488,120,124866,119442
6977,489,120,124869,119442
6979,492,120,124867,119443
6982,493,120,124886,119444
6984,494,120,124886,119450
6986,496,120,124887,119450
6989,497,121,124888,119449
6991,498,120,124886,119443
6994,499,121,124894,119452
6996,500,121,124899,119449
7000,500,121,124889,119448
7002,501,120,124895,119455
7004,502,120,124892,119453
7007,502,121,124904,119453
7009,503,120,124892,119453
7012,503,121,124904,119455
7014,503,120,124910,119449
7017,503,120,124915,119460
7019,503,120,124919,119462
7022,504,120,124916,119459
7024,504,120,124923,119461
7026,505,120,124921,119460
7029,506,120,124920,119457
7031,508,120,124924,119463
7034,508,120,124918,119460
7036,508,120,124927,119456
7040,508,120,124939,119458
7042,508,120,124948,119464
7044,508,120,124950,119466
7047,508,120,124953,119465
7049,508,120,124957,119468
7052,508,120,124950,119464
7054,508,120,124952,119472
7057,509,120,124953,119467
7059,509,120,124957,119470
7062,508,120,124954,119476
7064,508,120,124966,119475
7066,508,120,124972,119475
7069,509,120,124973,119476
7071,510,120,124960,119471
7074,511,120,124965,119468
7076,512,120,124974,119472
7079,512,120,124963,119473
7081,512,120,124950,119469
7084,512,120,124955,119462
7087,511,120,124940,119464
7089,511,120,124935,119460
7092,511,120,124931,119450
7094,510,120,124927,119450
7097,510,120,124915,119454
7099,509,120,124901,119443
7102,510,120,124879,119440
7104,510,120,124870,119436
7106,510,120,124857,119430
7109,510,120,124833,119424
7111,511,120,124827,119422
7114,510,120,124809,119421
7116,508,120,124794,119410
7119,507,120,124789,119409
7121,507,120,124779,119403
7123,507,120,124751,119397
7127,506,120,124739,119390
7129,506,120,124720,119390
7132,506,120,124713,119378
7134,507,120,124695,119373
7137,508,120,124672,119369
7139,510,120,124669,119367
7142,511,120,124658,119356
7144,510,120,124649,119350
7146,509,120,124634,119345
7149,508,120,124614,119341
7151,507,120,124601,119334
7154,508,120,124594,119332
7156,510,120,124588,119331
7159,511,120,124579,119316
7161,513,120,124574,119323
7163,514,120,124577,119317
7166,514,120,124565,119315
7169,514,120,124551,119311
7172,514,120,124543,119284
7174,514,120,124538,119301
7177,514,120,124537,119300
7179,513,120,124526,119295
7182,513,120,124515,119296
7184,514,120,124517,119297
7186,514,120,124509,119289
7189,514,120,124517,119289
7191,513,121,124499,119276
7194,512,120,124493,119278
7196,512,121,124495,119279
7199,512,121,124495,119273
7201,512,121,124480,119275
7203,512,121,124474,119275
7206,512,121,124480,119269
7208,512,121,124473,119266
7212,512,121,124472,119258
7214,513,121,124463,119259
7217,513,121,124464,119263
7219,510,121,124475,119262
7222,509,121,124475,119260
7224,507,120,124453,119255
7226,506,120,124452,119255
7229,505,121,124468,119256
7231,505,121,124458,119252
7234,505,120,124458,119252
7236,505,121,124456,119250
7239,505,121,124459,119250
7241,507,121,124454,119256
7243,507,121,124454,119258
7246,507,120,124460,119252
7248,508,121,124452,119252
7251,508,121,124458,119257
7254,509,121,124456,119260
7257,510,121,124456,119259
7259,510,121,124461,119259
7262,511,121,124463,119259
7264,512,121,124467,119263
7266,512,121,124467,119264
7269,513,121,124467,119265
7271,514,121,124473,119265
7274,513,121,124480,119268
7276,513,121,124485,119272
7279,513,121,124492,119277
7281,512,121,124492,119276
7283,512,121,124502,119280
7286,512,121,124507,119288
7288,513,121,124507,119288
7291,514,121,124512,119284
7293,514,121,124512,119283
7297,515,121,124526,119286
7299,516,121,124532,119286
7302,515,121,124546,119297
7304,513,121,124553,119300
7306,511,121,124553,119295
7309,509,121,124554,119308
7311,508,121,124554,119302
7314,509,121,124565,119303
7316,510,121,124568,119303
7319,509,121,124583,119309
7321,508,121,124579,119309
7323,508,121,124582,119309
7326,508,121,124582,119309
7328,509,121,124593,119309
7331,512,121,124594,119314
7333,515,121,124594,119312
7336,516,121,124602,119317
7339,517,121,124609,119317
7342,518,121,124614,119310
7344,519,121,124614,119315
7346,519,121,124620,119322
7349,519,121,124628,119322
7351,518,121,124638,119317
7354,519,121,124637,119321
7356,521,121,124637,119326
7359,523,121,124640,119322
7361,524,121,124636,119322
7363,524,121,124641,119323
7366,523,121,124641,119323
7368,521,121,124650,119331
7371,519,121,124650,119331
7373,517,121,124655,119336
7376,513,121,124655,119322
7378,511,121,124652,119322
7382,510,121,124652,119331
7384,506,121,124652,119332
7386,503,121,124665,119332
7389,501,121,124663,119332
7391,498,121,124657,119328
7394,496,121,124657,119334
7396,495,121,124667,119331
7399,496,121,124665,119331
7401,496,121,124677,119329
7403,497,121,124670,119341
7406,497,121,124670,119339
7408,496,121,124675,119343
7411,496,121,124674,119343
7413,495,121,124685,119341
7416,495,121,124685,119348
7418,494,121,124687,119353
7421,494,121,124682,119353
7424,494,121,124704,119350
7426,495,121,124699,119352
7429,496,121,124699,119362
7431,497,121,124719,119362
7434,499,121,124713,119362
7436,499,121,124719,119363
7439,499,121,124719,119370
7441,497,121,124719,119370
7443,496,121,124725,119370
7446,495,121,124722,119382
7448,495,121,124729,119373
7451,495,121,124726,119383
7453,495,121,124733,119380
7456,496,121,124756,119377
7458,495,121,124741,119387
7461,495,121,124741,119383
7463,492,121,124759,119391
7465,491,121,124756,119391
7469,491,121,124760,119391
7471,492,121,124757,119387
7474,494,121,124764,119386
7476,503,121,124767,119379
7479,512,121,124771,119384
7481,524,121,124774,119386
7483,538,121,124774,119375
7486,556,121,124780,119375
7488,586,121,124780,119381
7491,608,121,124787,119383
7493,626,121,124790,119384
7496,627,121,124792,119387
7498,627,121,124790,119389
7501,622,121,124795,119395
7503,607,121,124797,119389
7505,584,121,124803,119391
7508,560,121,124805,119398
7511,514,121,124812,119407
7514,495,121,124811,119410
7516,479,121,124818,119405
7519,467,121,124822,119407
7521,453,121,124841,119413
7523,449,121,124842,119416
7526,443,121,124835,119412
7528,440,121,124843,119414
7531,440,121,124847,119421
7533,445,121,124852,119427
7536,455,121,124851,119430
7538,472,121,124854,119433
7541,477,121,124870,119435
7543,482,121,124875,119426
7545,485,121,124874,119438
7548,487,121,124880,119434
7550,489,121,124892,119439
7554,490,121,124886,119445
7556,492,121,124884,119436
7559,493,121,124901,119447
7561,496,121,124892,119444
7563,496,121,124890,119446
7566,496,121,124899,119437
7568,496,121,124903,119444
7571,497,121,124902,119441
7573,498,121,124908,119447
7576,498,121,124913,119452
7578,499,121,124905,119450
7581,499,121,124921,119443
7583,500,121,124905,119442
7585,501,121,124905,119442
7588,502,121,124917,119438
7590,503,121,124913,119443
7593,505,121,124918,119443
7596,506,121,124920,119442
7599,507,121,124922,119441
7601,508,121,124924,119451
7603,508,121,124926,119440
7606,507,121,124928,119443
7608,507,121,124941,119444
7611,506,121,124928,119445
7613,507,121,124929,119450
7616,507,121,124934,119441
7618,507,121,124944,119439
7621,507,121,124932,119440
7623,508,121,124938,119440
7625,508,121,124946,119449
7628,508,121,124943,119432
7630,507,121,124954,119446
7633,507,121,124944,119446
7635,508,121,124950,119455
7639,509,121,124948,119448
7641,511,121,124953,119449
7643,512,121,124954,119447
7646,511,121,124949,119450
7648,510,121,124949,119455
7651,507,121,124949,119453
7653,506,121,124955,119461
7656,505,121,124948,119455
7658,505,121,124947,119455
7661,505,121,124937,119454
7663,506,121,124942,119455
7665,507,120,124932,119457
7668,506,121,124919,119448
7670,506,121,124904,119440
7673,504,121,124898,119440
7675,503,121,124896,119439
7678,503,120,124879,119433
7681,502,120,124870,119422
7683,502,120,124854,119427
7686,501,121,124843,119418
7688,502,120,124823,119414
7691,501,121,124810,119410
7693,502,121,124799,119403
7696,502,121,124785,119395
7698,503,120,124779,119392
7701,503,121,124761,119390
7703,503,120,124752,119375
7705,504,120,124726,119375
7708,507,120,124725,119370
7710,509,120,124714,119361
7713,509,120,124714,119352
7715,509,120,124681,119352
7718,509,120,124676,119352
7720,510,120,124669,119347
7723,511,120,124657,119338
7726,511,121,124644,119334
7728,511,120,124644,119329
7731,510,120,124638,119334
7733,511,120,124630,119333
7736,512,121,124630,119329
7738,512,120,124622,119330
7741,512,121,124612,119330
7743,512,120,124628,119337
7745,512,121,124611,119334
7748,512,120,124607,119326
7750,511,121,124607,119338
7753,511,121,124602,119338
7755,511,121,124606,119341
7758,511,120,124606,119334
7760,510,121,124604,119332
7762,510,121,124597,119332
7766,510,121,124603,119333
7768,510,121,124603,119330
7771,511,121,124600,119331
7773,511,121,124594,119331
7776,511,121,124596,119328
7778,510,121,124599,119329
7781,509,121,124598,119331
7783,507,121,124593,119327
7785,506,121,124591,119327
7788,505,120,124588,119323
7790,505,121,124588,119317
7793,505,120,124591,119320
7795,505,121,124589,119320
7798,506,120,124591,119322
7800,508,121,124584,119319
7802,509,121,124584,119311
7805,510,120,124582,119316
7808,511,121,124586,119316
7811,511,121,124584,119315
7813,509,121,124584,119311
7816,508,121,124585,119316
7818,507,120,124579,119316
7821,507,121,124590,119316
7823,506,120,124590,119314
7825,507,120,124588,119324
7828,507,121,124596,119324
7830,508,121,124610,119325
7833,508,121,124609,119323
7835,509,121,124609,119328
7838,508,120,124613,119334
7840,508,120,124617,119334
7842,507,121,124623,119335
7845,506,120,124622,119332
7847,507,121,124628,119332
7851,508,120,124628,119342
7853,509,120,124636,119342
7856,510,121,124646,119342
7858,510,120,124646,119345
7861,508,121,124657,119348
7863,508,121,124655,119348
7865,508,121,124661,119340
7868,509,121,124657,119334
7870,509,121,124667,119334
7873,511,121,124667,119342
7875,511,121,124671,119342
7878,512,120,124674,119342
7880,513,120,124674,119343
7882,512,120,124685,119330
7885,512,121,124681,119330
7887,513,121,124681,119334
7890,515,120,124696,119342
7892,516,120,124682,119335
7896,518,120,124694,119335
7898,521,120,124695,119331
7901,525,121,124695,119339
7903,527,121,124690,119339
7905,527,120,124695,119341
7908,523,121,124695,119346
7910,519,120,124699,119343
7913,517,121,124707,119343
7915,513,120,124707,119347
7918,508,120,124707,119346
7920,507,120,124709,119342
7922,507,120,124709,119342
7925,506,120,124717,119346
7927,505,120,124716,119348
7930,501,120,124716,119352
7932,498,120,124722,119350
7936,498,121,124727,119350
7938,497,120,124726,119360
7941,497,120,124726,119362
7943,495,120,124737,119359
7945,494,120,124731,119359
7948,493,120,124735,119369
7950,492,120,124733,119362
7953,492,120,124734,119361
7955,489,120,124739,119371
7958,488,120,124747,119373
7960,488,120,124744,119382
7962,488,120,124744,119374
7965,487,120,124738,119385
7967,488,120,124751,119385
7970,488,120,124753,119388
7972,490,120,124754,119380
7975,491,120,124760,119375
7977,494,120,124760,119383
7981,495,120,124776,119379
7983,495,120,124776,119383
7985,494,120,124774,119383
7988,494,120,124766,119389
7990,494,120,124772,119382
7993,494,120,124771,119385
7995,495,120,124780,119378
7998,493,120,124778,119383
8000,492,120,124781,119389
8002,491,120,124776,119386
8005,489,120,124781,119381
8007,489,120,124779,119389
8010,489,120,124789,119391
8012,491,120,124795,119388
8015,493,120,124799,119388
8017,499,120,124805,119388
8020,504,120,124799,119387
8023,514,120,124799,119385
8025,526,120,124801,119384
8028,549,120,124799,119395
8030,588,120,124797,119389
8033,605,120,124811,119390
8035,614,120,124815,119385
8038,619,120,124828,119391
8040,619,120,124827,119395
8042,617,120,124829,119400
8045,593,120,124825,119396
8047,576,120,124835,119398
8050,555,120,124833,119397
8052,535,120,124833,119401
8055,508,120,124836,119400
8057,476,120,124841,119400
8060,464,120,124843,119407
8062,455,120,124848,119403
8065,448,120,124856,119405
8068,440,120,124859,119405
8070,433,120,124866,119406
8073,433,120,124859,119408
8075,437,120,124860,119409
8078,445,120,124847,119414
8080,456,120,124862,119408
8082,466,120,124866,119408
8085,476,120,124861,119412
8087,479,120,124866,119408
8090,481,120,124877,119410
8092,484,120,124880,119410
8095,486,120,124890,119415
8097,491,120,124881,119406
8100,493,120,124886,119412
8102,494,120,124881,119406
8104,495,120,124883,119415
8108,496,120,124879,119413
8110,496,120,124877,119412
8113,495,120,124889,119402
8115,495,120,124886,119414
8118,496,120,124887,119409
8120,496,120,124891,119412
8122,496,120,124897,119409
8125,496,119,124899,119410
8127,496,120,124905,119414
8130,496,120,124903,119418
8132,497,120,124904,119423
8135,498,120,124908,119419
8137,499,120,124914,119421
8140,500,120,124924,119422
8142,500,120,124926,119427
8144,500,120,124929,119424
8147,500,120,124918,119425
8150,499,120,124926,119422
8153,499,120,124926,119422
8155,499,120,124932,119428
8158,501,120,124938,119426
8160,502,120,124955,119428
8162,502,120,124937,119428
8165,503,120,124943,119434
8167,502,120,124942,119425
8170,502,119,124951,119423
8172,502,120,124947,119419
8175,502,120,124944,119430
8177,501,120,124953,119424
8180,501,120,124955,119427
8182,502,120,124962,119428
8184,502,120,124946,119428
8187,502,120,124951,119430
8189,502,120,124963,119428
8193,502,120,124963,119432
8195,503,119,124950,119429
8198,504,120,124950,119429
8200,505,120,124944,119435
8202,504,119,124938,119426
8205,502,119,124927,119428
8207,501,120,124918,119420
8210,500,119,124917,119423
8212,499,120,124907,119418
8215,500,119,124899,119416
8217,500,120,124888,119413
8220,499,120,124888,119414
8222,498,120,124858,119397
8224,499,120,124843,119396
8227,500,120,124837,119390
8229,500,120,124821,119389
8232,501,120,124812,119383
8235,501,120,124796,119386
8238,501,119,124796,119377
8240,501,119,124766,119365
8242,500,120,124757,119365
8245,499,120,124749,119366
8247,498,120,124736,119353
8250,497,120,124723,119359
8252,497,120,124723,119343
8255,498,119,124692,119342
8257,500,120,124681,119330
8260,502,120,124681,119327
8262,503,120,124663,119327
8264,504,120,124645,119327
8267,504,120,124647,119308
8269,507,120,124647,119306
8272,509,120,124628,119303
8274,510,120,124616,119303
8278,510,120,124603,119294
8280,512,120,124598,119280
8282,512,120,124590,119280
8285,512,120,124589,119279
8287,513,120,124589,119280
8290,514,120,124571,119276
8292,515,119,124565,119276
8295,514,120,124570,119274
8297,515,120,124570,119262
8300,515,120,124556,119257
8302,513,120,124546,119267
8304,512,120,124546,119265
8307,511,120,124545,119263
8309,509,120,124538,119263
8312,508,120,124538,119255
8314,506,120,124538,119252
8317,505,120,124531,119255
8320,505,120,124535,119255
8322,505,120,124536,119247
8325,504,120,124530,119245
8327,504,120,124524,119245
8330,504,120,124529,119242
8332,504,120,124529,119247
8335,504,120,124528,119243
8337,504,120,124530,119243
8340,504,120,124518,119251
8342,505,120,124518,119247
8344,506,120,124524,119243
8347,507,119,124520,119243
8349,508,120,124534,119247
8352,509,120,124514,119253
8354,509,120,124514,119252
8357,509,120,124524,119245
8359,508,120,124525,119245
8361,508,120,124522,119245
8365,509,120,124522,119249
8367,510,120,124526,119245
8370,511,120,124530,119245
8372,511,120,124531,119247
8375,511,120,124531,119245
8377,510,120,124523,119245
8380,509,120,124530,119245
8382,507,120,124530,119254
8384,507,120,124539,119249
8387,507,120,124550,119249
8389,508,119,124554,119245
8392,511,120,124554,119253
8394,513,120,124555,119261
8397,514,120,124556,119261
8399,516,120,124568,119267
8401,518,120,124563,119278
8404,519,120,124563,119269
8407,518,120,124572,119276
8410,518,120,124581,119276
8412,517,120,124587,119274
8415,519,120,124587,119277
8417,520,119,124595,119280
8420,522,119,124595,119280
8422,524,120,124609,119287
8424,526,119,124603,119284
8427,529,119,124603,119283
8429,529,120,124618,119289
8432,529,120,124616,119289
8434,527,119,124620,119289
8437,525,120,124620,119290
8439,518,120,124620,119286
8441,515,120,124621,119286
8444,512,119,124625,119291
8446,510,119,124628,119292
8450,509,120,124639,119297
8452,507,120,124650,119289
8455,505,120,124646,119294
8457,502,119,124651,119303
8460,500,120,124651,119296
8462,497,119,124650,119295
8464,497,120,124652,119295
8467,496,119,124646,119294
8469,496,119,124656,119294
8472,496,119,124664,119296
8474,495,119,124663,119296
8477,495,119,124664,119295
8479,494,120,124665,119305
8481,494,119,124665,119298
8484,494,119,124676,119298
8486,494,119,124669,119308
8489,493,119,124681,119306
8492,493,119,124685,119305
8495,494,120,124683,119310
8497,495,119,124678,119308
8500,495,119,124679,119307
8502,495,119,124683,119306
8504,495,120,124680,119300
8507,495,119,124683,119303
8509,495,119,124696,119308
8512,495,119,124695,119309
8514,496,119,124701,119303
8517,497,119,124694,119304
8519,497,119,124686,119300
8521,498,119,124692,119310
8524,498,119,124686,119308
8526,497,119,124686,119303
8529,496,119,124697,119303
8531,493,119,124693,119309
8535,492,119,124698,119306
8537,492,119,124709,119307
8540,493,119,124721,119315
8542,498,119,124716,119307
8544,502,119,124710,119306
8547,512,119,124716,119302
8549,523,119,124715,119313
8552,544,119,124719,119316
8554,570,119,124713,119319
8557,597,119,124717,119321
8559,625,119,124721,119316
8561,628,119,124719,119321
8564,628,119,124735,119318
8566,625,119,124736,119324
8569,618,119,124745,119323
8571,589,119,124746,119325
8574,571,119,124742,119331
8577,548,119,124745,119318
8580,524,119,124752,119330
8582,486,119,124748,119339
8584,473,119,124754,119346
8587,463,119,124769,119348
8589,454,119,124778,119345
8592,444,119,124766,119348
8594,440,119,124768,119349
8597,439,119,124778,119356
8599,445,119,124779,119351
8601,453,119,124791,119350
8604,461,119,124784,119344
8606,468,119,124790,119353
8609,480,119,124791,119348
8611,484,119,124787,119355
8614,487,119,124788,119350
8616,488,119,124799,119354
8620,488,119,124797,119336
8622,489,119,124796,119352
8624,490,119,124801,119348
8627,492,119,124805,119351
8629,493,119,124818,119353
8632,495,119,124813,119355
8634,497,119,124809,119359
8637,497,119,124820,119355
8639,497,119,124818,119359
8641,497,119,124829,119357
8644,498,119,124830,119356
8646,498,119,124830,119361
8649,500,119,124837,119358
8651,501,119,124842,119363
8654,502,119,124838,119370
8656,503,119,124849,119370
8659,503,119,124851,119369
8662,504,119,124853,119377
8664,504,119,124858,119366
8667,505,119,124858,119368
8669,505,119,124861,119374
8672,505,119,124867,119380
8674,505,119,124874,119371
8677,507,119,124875,119376
8679,508,119,124873,119376
8681,509,119,124873,119376
8684,509,119,124892,119386
8686,509,119,124882,119378
8689,509,119,124887,119382
8691,508,119,124889,119385
8694,508,119,124896,119384
8696,509,119,124905,119390
8699,509,119,124905,119384
8701,509,119,124901,119388
8704,509,119,124902,119388
8707,509,119,124908,119388
8709,509,119,124904,119381
8712,509,119,124904,119389
8714,508,119,124907,119390
8717,508,119,124902,119390
8719,507,119,124916,119397
8721,507,119,124902,119393
8724,507,119,124904,119388
8726,507,119,124904,119387
8729,507,119,124887,119394
8731,507,119,124878,119387
8734,507,119,124878,119385
8736,507,119,124859,119378
8739,507,119,124850,119378
8741,507,119,124841,119373
8743,507,119,124824,119364
8747,507,119,124809,119361
8749,507,119,124809,119359
8752,507,119,124781,119350
8754,507,119,124772,119349
8757,507,119,124772,119338
8759,507,119,124739,119330
8761,507,119,124726,119330
8764,508,119,124717,119325
8766,508,119,124717,119320
8769,507,119,124686,119313
8771,506,119,124672,119313
8774,505,119,124671,119309
8776,504,119,124650,119297
8779,505,119,124636,119300
8781,508,119,124626,119289
8783,510,119,124621,119289
8786,513,119,124612,119278
8788,514,119,124612,119278
8792,514,119,124599,119265
8794,514,119,124584,119265
8797,514,119,124585,119269
8799,514,119,124585,119256
8801,514,119,124574,119256
8804,515,119,124545,119256
8806,516,120,124545,119247
8809,515,119,124532,119241
8811,516,119,124532,119241
8814,517,119,124531,119239
8816,518,119,124515,119239
8819,518,119,124521,119235
8821,518,119,124521,119223
8823,517,119,124514,119222
8826,516,119,124501,119222
8828,515,119,124503,119224
8832,515,119,124497,119227
8834,514,119,124497,119222
8837,514,119,124494,119219
8839,514,119,124486,119219
8841,514,119,124487,119216
8844,515,120,124479,119211
8846,515,119,124475,119211
8849,514,119,124475,119210
8851,513,119,124473,119209
8854,513,119,124470,119209
8856,511,119,124470,119207
8859,511,120,124472,119204
8861,512,120,124461,119204
8863,512,120,124470,119204
8866,512,119,124470,119199
8868,511,119,124463,119201
8871,510,119,124454,119201
8873,510,120,124459,119191
8877,510,120,124459,119193
8879,510,120,124450,119193
8881,511,119,124458,119191
8884,511,119,124458,119193
8886,511,119,124458,119196
8889,512,120,124463,119196
8891,513,120,124460,119187
8894,515,120,124460,119199
8896,515,120,124461,119199
8899,515,120,124464,119199
8901,514,120,124474,119193
8903,514,119,124473,119201
8906,515,120,124473,119204
8908,518,120,124473,119205
8911,520,120,124484,119205
8913,521,120,124484,119215
8916,523,120,124484,119212
8919,526,120,124488,119212
8921,527,120,124490,119212
8924,527,120,124501,119218
8926,527,120,124496,119219
8929,528,120,124496,119220
8931,529,120,124510,119226
8934,530,120,124521,119226
8936,531,120,124529,119230
8939,532,120,124529,119237
8941,532,120,124529,119231
8943,532,120,124538,119231
8946,531,120,124549,119248
8948,529,120,124550,119243
8951,527,120,124556,119241
8953,521,120,124559,119248
8956,519,120,124570,119247
8958,517,120,124570,119258
8961,517,120,124570,119249
8964,516,120,124581,119249
8966,514,120,124583,119249
8969,511,120,124588,119265
8971,508,120,124591,119258
8974,506,120,124590,119262
8976,504,120,124598,119259
8979,504,120,124612,119268
8981,504,120,124612,119266
8983,505,120,124608,119261
8986,504,120,124619,119264
8988,503,120,124615,119259
8991,503,120,124626,119269
8993,501,120,124633,119263
8996,500,120,124625,119274
8998,499,120,124627,119272
9000,498,120,124631,119275
9004,497,120,124632,119280
9006,497,120,124634,119280
9009,498,120,124638,119274
9011,500,120,124647,119277
9014,501,120,124646,119285
9016,502,120,124645,119283
9019,501,120,124647,119279
9021,499,120,124651,119279
9023,498,120,124653,119272
9026,498,120,124651,119281
9028,499,120,124644,119274
9031,500,120,124655,119276
9033,502,120,124651,119282
9036,503,120,124662,119287
9038,502,120,124658,119282
9040,500,120,124659,119286
9043,499,120,124666,119287
9046,497,120,124667,119288
9049,495,120,124657,119290
9051,493,120,124667,119285
9054,494,120,124672,119300
9056,496,120,124676,119296
9059,499,120,124682,119297
9061,518,120,124682,119305
9063,531,120,124673,119303
9066,547,120,124689,119307
9068,571,120,124698,119310
9071,610,120,124690,119304
9073,626,120,124698,119317
9076,639,120,124703,119307
9078,641,120,124706,119319
9080,637,120,124709,119318
9083,628,120,124703,119307
9085,614,120,124715,119321
9089,572,120,124720,119315
9091,546,120,124718,119325
9094,525,120,124726,119312
9096,502,120,124731,119318
9099,480,120,124735,119317
9101,458,120,124732,119322
9103,450,120,124729,119323
9106,445,120,124734,119319
9108,440,120,124746,119329
9111,437,120,124740,119318
9113,444,120,124751,119324
9116,451,120,124751,119327
9118,460,120,124753,119320
9120,469,120,124754,119324
9123,483,120,124754,119324
9125,487,120,124761,119331
9128,489,120,124770,119333
9131,490,120,124761,119338
9134,492,120,124769,119330
9136,495,120,124776,119335
9139,496,120,124783,119334
9141,497,120,124788,119341
9143,498,120,124785,119344
9146,498,120,124791,119346
9148,498,120,124790,119343
9151,498,120,124802,119344
9153,496,120,124804,119349
9156,496,120,124804,119346
9158,496,120,124800,119347
9160,499,120,124821,119361
9163,500,120,124818,119358
9165,502,120,124829,119365
9168,502,120,124842,119365
9170,502,120,124846,119358
9174,501,120,124847,119367
9176,500,120,124838,119365
9179,500,120,124849,119370
9181,504,120,124856,119369
9183,507,120,124854,119371
9186,508,120,124862,119371
9188,508,120,124856,119372
9191,507,120,124868,119378
9193,507,120,124864,119374
9196,507,120,124864,119382
9198,507,120,124884,119378
9200,507,120,124875,119378
9203,507,120,124892,119390
9205,507,120,124889,119386
9208,508,120,124903,119373
9210,509,120,124888,119383
9213,509,120,124894,119387
9216,511,120,124893,119389
9219,512,120,124893,119383
9221,512,120,124898,119386
9223,513,120,124898,119386
9226,513,120,124904,119383
9228,513,120,124893,119380
9231,513,120,124893,119381
9233,512,120,124895,119377
9236,512,120,124892,119377
9238,511,120,124874,119369
9240,511,120,124874,119367
9243,510,120,124856,119362
9245,509,120,124840,119362
9248,509,120,124837,119354
9250,508,120,124823,119346
9253,508,120,124823,119339
9255,508,120,124789,119337
9259,508,120,124776,119337
9261,507,120,124771,119329
9263,506,120,124771,119323
9266,506,120,124727,119312
9268,507,120,124717,119312
9271,508,120,124710,119316
9273,509,120,124690,119298
9276,509,120,124672,119301
9278,509,120,124672,119286
9280,508,120,124656,119289
9283,508,120,124630,119276
9285,508,120,124628,119276
9288,507,120,124613,119273
9290,508,120,124613,119269
9293,510,120,124610,119269
9295,512,120,124585,119269
9298,513,120,124573,119258
9300,516,120,124573,119236
9303,516,120,124567,119235
9306,516,120,124534,119241
9308,516,120,124534,119233
9311,515,120,124511,119224
9313,515,120,124497,119224
9316,514,120,124508,119220
9318,514,120,124508,119206
9320,515,120,124486,119208
9323,516,120,124474,119204
9325,517,120,124458,119204
9328,517,120,124458,119191
9330,517,121,124444,119191
9333,516,120,124441,119197
9335,515,120,124441,119179
9338,514,120,124437,119179
9340,515,121,124427,119179
9342,514,121,124420,119184
9346,514,120,124424,119173
9348,514,121,124408,119173
9351,514,121,124408,119175
9353,515,121,124412,119179
9356,516,121,124412,119179
9358,516,121,124412,119178
9360,516,121,124412,119180
9363,517,121,124417,119180
9365,517,120,124416,119185
9368,516,121,124416,119188
9370,514,121,124420,119189
9373,513,121,124407,119189
9375,512,121,124415,119185
9378,509,121,124415,119189
9380,508,121,124411,119189
9382,507,121,124413,119191
9385,508,121,124413,119193
9388,508,121,124418,119196
9391,508,121,124417,119196
9393,509,121,124422,119200
9396,508,121,124422,119195
9398,508,121,124413,119198
9400,508,121,124414,119198
9403,509,121,124417,119194
9405,510,121,124410,119191
9408,512,121,124410,119187
9410,513,121,124418,119192
9413,514,121,124403,119192
9415,515,121,124407,119184
9418,516,121,124407,119174
9420,517,121,124396,119173
9422,519,121,124400,119173
9425,520,121,124403,119170
9427,522,121,124399,119174
9431,523,121,124399,119164
9433,525,121,124411,119172
9436,525,121,124406,119168
9438,526,121,124417,119170
9440,527,121,124417,119168
9443,530,121,124422,119173
9445,532,121,124418,119173
9448,533,121,124423,119172
9450,534,121,124430,119171
9453,535,121,124422,119169
9455,535,121,124434,119176
9458,534,121,124448,119173
9460,533,121,124448,119183
9462,529,121,124452,119183
9465,526,121,124452,119184
9467,523,121,124466,119190
9470,520,121,124472,119190
9473,517,121,124485,119189
9476,516,121,124475,119189
9478,515,121,124488,119194
9480,512,121,124483,119200
9483,509,121,124495,119200
9485,504,121,124494,119203
9488,502,121,124503,119199
9490,501,121,124508,119199
9493,499,121,124510,119198
9495,498,121,124510,119201
9498,498,121,124513,119204
9500,499,121,124518,119206
9502,500,121,124522,119203
9505,500,121,124527,119210
9507,500,121,124529,119219
9510,499,121,124527,119213
9512,498,121,124545,119205
9516,498,121,124546,119216
9518,497,121,124551,119215
9520,496,121,124554,119222
9523,494,121,124559,119216
9525,494,121,124558,119222
9528,494,121,124557,119217
9530,495,121,124563,119217
9533,495,121,124559,119220
9535,497,121,124560,119222
9538,498,121,124568,119229
9540,499,121,124565,119217
9542,499,121,124568,119225
9545,500,121,124566,119221
9547,501,121,124571,119222
9550,502,121,124577,119222
9552,502,121,124570,119220
9555,501,121,124566,119219
9558,498,121,124566,119225
9560,495,121,124568,119225
9563,492,121,124568,119215
9565,492,121,124566,119228
9568,493,121,124571,119217
9570,498,121,124580,119227
9573,507,121,124581,119218
9575,529,121,124591,119218
9578,549,121,124580,119218
9580,573,121,124590,119219
9582,598,121,124591,119221
9585,623,121,124587,119224
9587,639,121,124594,119230
9590,644,121,124589,119228
9592,641,122,124591,119234
9595,633,122,124597,119228
9597,615,122,124593,119230
9600,591,122,124601,119244
9603,539,122,124607,119238
9605,517,122,124609,119235
9608,498,122,124610,119228
9610,478,121,124603,119232
9613,463,121,124608,119242
9615,449,121,124609,119241
9618,443,121,124621,119238
9620,438,122,124616,119235
9622,437,121,124623,119240
9625,440,121,124626,119245
9627,448,121,124628,119241
9630,459,121,124625,119247
9632,473,121,124636,119243
9635,477,121,124636,119243
9637,483,122,124646,119247
9639,485,121,124643,119248
9643,486,121,124653,119252
9645,487,121,124644,119231
9648,491,121,124658,119261
9650,494,121,124667,119256
9653,495,121,124670,119262
9655,496,121,124672,119259
9658,497,121,124673,119248
9660,499,121,124676,119255
9662,501,122,124684,119260
9665,501,121,124690,119262
9667,501,121,124684,119263
9670,499,121,124693,119260
9672,498,122,124700,119262
9675,497,121,124700,119266
9677,497,121,124701,119263
9679,498,121,124697,119263
9682,500,121,124712,119269
9684,501,121,124707,119260
9688,501,121,124713,119267
9690,502,121,124723,119264
9693,503,122,124720,119270
9695,503,121,124728,119272
9698,503,121,124728,119263
9700,502,121,124725,119266
9702,502,121,124731,119266
9705,502,122,124737,119269
9707,503,122,124742,119269
9710,503,121,124742,119265
9712,504,121,124745,119276
9715,504,122,124752,119276
9717,506,121,124755,119276
9719,506,122,124750,119282
9722,507,121,124760,119281
9724,508,121,124760,119275
9728,508,122,124766,119285
9730,509,122,124765,119281
9733,509,122,124765,119276
9735,509,122,124760,119279
9738,510,122,124765,119279
9740,510,122,124774,119289
9742,511,121,124774,119284
9745,512,121,124767,119284
9747,512,122,124760,119284
9750,512,122,124753,119276
9752,512,122,124745,119278
9755,512,122,124732,119277
9757,510,122,124732,119265
9759,508,122,124729,119266
9762,508,122,124698,119264
9764,508,122,124689,119264
9767,507,122,124667,119252
9769,507,122,124667,119249
9773,507,122,124658,119250
9775,506,122,124627,119250
9778,505,122,124619,119243
9780,504,122,124598,119225
9782,504,122,124598,119218
9785,503,122,124573,119217
9787,504,122,124555,119217
9790,504,122,124534,119205
9792,504,122,124534,119197
9795,505,122,124527,119185
9797,505,122,124493,119185
9799,505,122,124477,119188
9802,506,122,124461,119168
9804,507,122,124461,119160
9807,508,122,124436,119160
9809,510,122,124428,119157
9812,511,122,124404,119156
9815,512,122,124404,119144
9818,513,122,124397,119138
9820,515,122,124372,119138
9822,516,122,124370,119127
9825,517,122,124361,119123
9827,518,122,124345,119123
9830,517,122,124345,119116
9832,517,122,124335,119122
9835,516,122,124327,119122
9837,517,122,124327,119114
9839,517,122,124329,119111
9842,518,122,124299,119111
9844,518,122,124303,119106
9847,516,122,124294,119104
9849,514,122,124300,119104
9852,511,122,124300,119100
9854,511,122,124296,119094
9858,511,122,124282,119094
9860,510,122,124282,119083
9862,510,122,124280,119087
9865,510,122,124264,119087
9867,510,122,124272,119077
9870,511,122,124272,119079
9872,510,122,124261,119079
9875,510,122,124261,119076
9877,509,122,124236,119076
9879,509,122,124241,119076
9882,507,122,124241,119076
9884,506,122,124249,119076
9887,507,122,124240,119076
9889,507,122,124242,119076
9892,508,122,124242,119072
9894,508,122,124233,119065
9897,508,122,124232,119065
9900,508,122,124238,119071
9902,508,122,124232,119072
9905,508,122,124232,119083
9907,509,122,124242,119079
9910,509,122,124235,119079
9912,509,122,124236,119079
9915,509,122,124236,119078
9917,509,122,124232,119076
9919,510,122,124241,119076
9922,511,122,124231,119076
9924,512,122,124231,119074
9927,514,122,124236,119072
9929,518,122,124239,119074
9932,519,122,124243,119076
9934,520,122,124238,119078
9937,522,122,124238,119072
9939,525,122,124246,119080
9942,525,122,124251,119080
9945,525,122,124252,119073
9947,525,122,124253,119078
9950,525,122,124256,119077
9952,528,122,124270,119089
9955,529,122,124274,119087
9957,531,122,124279,119090
9959,532,122,124279,119091
9962,532,122,124288,119091
9964,532,122,124288,119095
9967,532,122,124308,119103
9969,528,122,124315,119104
9972,526,122,124314,119107
9974,523,122,124328,119106
9977,521,122,124334,119108
9979,518,122,124337,119113
9981,517,122,124337,119116
9985,517,122,124355,119123
9987,515,122,124363,119125
9990,513,122,124367,119134
9992,510,122,124373,119131
9995,508,122,124381,119131
9997,507,122,124388,119138
9999,507,122,124398,119137
10002,506,122,124389,119141
10004,505,122,124400,119140
10007,502,122,124402,119141
10009,500,122,124410,119151
10012,497,122,124414,119152
10014,495,122,124411,119152
10017,494,122,124423,119155
10019,494,122,124427,119155
10021,495,122,124437,119156
10024,495,122,124449,119166
10027,495,122,124446,119168
10030,494,122,124443,119174
10032,494,122,124452,119164
10035,494,122,124463,119172
10037,495,122,124447,119176
10039,495,122,124461,119178
10042,495,122,124469,119168
10044,496,122,124462,119173
10047,497,122,124470,119173
10049,497,122,124478,119175
10052,497,122,124474,119182
10054,497,122,124477,119183
10057,497,122,124486,119187
10059,496,122,124481,119187
10061,496,122,124485,119189
10064,496,122,124496,119192
10066,494,122,124511,119195
10070,492,122,124493,119192
10072,491,122,124505,119201
10075,491,122,124513,119203
10077,495,122,124512,119204
10079,500,122,124523,119208
10082,509,122,124512,119208
10084,520,122,124522,119210
10087,558,122,124528,119220
10089,583,122,124538,119221
10092,605,122,124544,119213
10094,625,122,124552,119221
10097,641,122,124547,119222
10099,648,122,124543,119222
10101,647,122,124560,119229
10104,639,122,124565,119220
10106,620,122,124564,119229
10109,589,122,124561,119229
10112,541,122,124569,119227
10115,522,122,124573,119226
10117,486,122,124572,119235
10119,470,122,124587,119232
10122,459,122,124583,119235
10124,448,122,124585,119235
10127,437,122,124588,119240
10129,436,122,124594,119239
10132,440,122,124594,119237
10134,446,122,124600,119242
10137,456,122,124603,119242
10139,471,122,124607,119239
10141,478,122,124612,119246
10144,482,122,124611,119248
10146,485,122,124617,119249
10149,485,122,124623,119258
10151,486,122,124627,119250
10155,486,122,124625,119253
10157,486,122,124642,119254
10159,487,122,124636,119254
10162,489,122,124640,119262
10164,491,122,124642,119258
10167,491,122,124652,119261
10169,492,122,124657,119262
10172,493,122,124655,119266
10174,495,122,124667,119267
10177,496,122,124663,119264
10179,498,122,124684,119272
10181,499,122,124677,119272
10184,500,122,124692,119276
10186,501,122,124689,119271
10189,501,122,124689,119268
10191,501,122,124693,119269
10194,500,122,124695,119269
10196,498,122,124707,119288
10199,498,122,124708,119280
10202,499,122,124712,119283
10204,500,122,124712,119290
10207,501,122,124717,119283
10209,503,122,124729,119292
10212,504,122,124729,119289
10214,505,122,124734,119287
10217,506,122,124738,119287
10219,505,122,124752,119300
10221,505,122,124743,119291
10224,506,122,124750,119295
10226,506,122,124750,119299
10229,505,122,124756,119305
10231,504,122,124753,119301
10234,503,122,124753,119304
10236,503,122,124756,119299
10238,504,122,124763,119299
10242,504,122,124760,119302
10244,505,122,124760,119302
10247,505,122,124765,119300
10249,506,122,124750,119300
10252,507,122,124757,119298
10254,507,122,124743,119286
10257,507,122,124729,119281
10259,507,122,124717,119271
10261,507,122,124708,119271
10264,506,122,124697,119267
10266,506,122,124697,119267
10269,505,122,124691,119261
10271,505,122,124658,119261
10274,504,122,124660,119255
10276,504,122,124619,119238
10278,504,122,124619,119236
10281,504,122,124597,119236
10284,504,122,124584,119226
10287,505,122,124562,119218
10289,506,122,124562,119208
10292,507,122,124546,119206
10294,507,122,124514,119206
10297,506,122,124498,119202
10299,506,122,124498,119187
10301,507,122,124487,119186
10304,507,122,124458,119186
10306,507,122,124439,119176
10309,507,122,124421,119178
10311,510,122,124421,119161
10314,511,122,124393,119157
10316,512,122,124382,119157
10318,512,122,124374,119151
10321,511,122,124358,119142
10323,511,122,124348,119142
10327,511,122,124348,119128
10329,512,122,124328,119130
10332,513,122,124311,119130
10334,516,122,124311,119108
10337,518,122,124297,119105
10339,519,122,124274,119105
10341,518,122,124266,119100
10344,516,122,124256,119080
10346,515,122,124246,119080
10349,512,122,124246,119078
10351,512,122,124248,119077
10354,512,122,124219,119077
10356,513,122,124219,119061
10358,513,122,124223,119056
10361,513,122,124205,119056
10363,510,122,124205,119050
10366,508,122,124198,119047
10369,507,122,124188,119048
10372,507,122,124184,119048
10374,508,122,124185,119032
10377,509,122,124185,119039
10379,509,122,124166,119039
10381,509,122,124157,119040
10384,508,122,124157,119033
10386,508,122,124157,119031
10389,508,122,124159,119031
10391,507,122,124156,119030
10394,507,122,124156,119035
10396,507,122,124160,119032
10398,509,122,124160,119032
10401,510,122,124150,119028
10403,510,122,124159,119042
10406,510,122,124159,119034
10408,509,122,124165,119033
10412,508,122,124155,119033
10414,507,122,124165,119037
10417,507,122,124165,119041
10419,507,122,124165,119036
10421,507,122,124158,119036
10424,507,122,124157,119039
10426,507,122,124152,119036
10429,506,122,124162,119037
10431,506,122,124164,119033
10434,507,122,124165,119030
10436,507,122,124159,119034
10438,507,122,124159,119028
10441,509,122,124166,119033
10443,510,122,124164,119033
10446,511,122,124161,119043
10448,511,122,124169,119032
10451,512,122,124170,119035
10454,514,122,124177,119038
10457,515,122,124187,119036
10459,517,122,124190,119041
10461,519,122,124190,119042
10464,520,122,124192,119042
10466,523,122,124199,119046
10469,524,122,124218,119053
10471,524,122,124218,119047
10474,524,122,124219,119052
10476,526,122,124224,119046
10478,527,122,124235,119057
10481,528,122,124230,119052
10483,529,122,124244,119051
10486,530,122,124260,119053
10488,530,122,124267,119059
10491,528,122,124253,119060
10493,527,122,124279,119067
10497,524,122,124284,119075
10499,517,122,124287,119077
10501,514,122,124292,119079
10504,512,122,124298,119089
10506,511,122,124311,119085
10509,509,122,124314,119092
10511,506,122,124314,119087
10514,504,122,124321,119091
10516,501,122,124332,119098
10518,498,122,124350,119102
10521,494,122,124349,119103
10523,493,122,124343,119109
10526,493,122,124358,119115
10528,492,122,124364,119109
10531,492,122,124369,119112
10533,493,122,124365,119107
10536,492,121,124377,119122
10539,493,122,124380,119109
10541,492,122,124386,119120
10544,491,122,124385,119121
10546,491,122,124383,119126
10549,491,122,124393,119123
10551,491,122,124401,119127
10554,491,121,124399,119120
10556,491,122,124405,119126
10558,490,121,124406,119133
