TimeStamp,ECG Data,GSR Data,PPG_Red Data,PPG_IR Data
125816,497,119,127678,121669
125818,478,119,127679,121674
125821,458,119,127676,121672
125813,514,119,127676,121664
125816,497,119,127678,121669
125818,478,119,127679,121674
125821,458,119,127676,121672
6,446,110,0,0
8,456,110,57556,57572
11,463,110,73918,73938
13,468,110,90301,90312
15,474,110,106672,106632
18,478,110,123047,121733
20,482,110,127700,121740
23,483,110,127704,121739
25,485,111,127704,121736
28,486,111,127701,121736
30,488,111,127704,121736
33,489,111,127712,121732
35,490,111,127704,121738
37,490,111,127702,121727
40,491,111,127712,121731
43,493,112,127705,121727
46,494,112,127701,121730
48,495,112,127703,121720
51,496,112,127710,121727
53,497,112,127720,121727
55,497,112,127721,121731
58,498,112,127711,121722
60,498,112,127720,121727
63,498,112,127719,121720
65,499,112,127718,121726
68,500,112,127721,121725
70,501,112,127719,121726
73,501,113,127724,121727
75,502,113,127727,121720
77,502,113,127725,121724
80,503,113,127727,121725
82,504,113,127726,121725
86,504,113,127731,121736
88,504,113,127724,121732
91,505,113,127731,121729
93,505,113,127728,121720
95,505,113,127733,121734
98,506,113,127723,121728
100,506,113,127730,121728
103,506,113,127738,121729
105,506,114,127747,121722
108,506,113,127743,121746
110,506,113,127741,121739
113,506,113,127745,121739
115,506,113,127746,121742
117,506,113,127750,121746
120,506,114,127745,121740
122,506,114,127758,121736
125,505,114,127752,121739
128,505,114,127743,121741
131,504,114,127751,121741
133,504,114,127748,121740
135,504,114,127757,121749
138,504,114,127751,121739
140,503,114,127746,121743
143,503,114,127743,121741
145,502,114,127744,121742
148,503,114,127750,121741
150,502,114,127735,121737
153,501,114,127731,121743
155,501,114,127723,121733
157,501,114,127711,121735
160,501,114,127702,121726
162,501,114,127701,121721
165,501,114,127684,121720
167,502,114,127669,121720
171,503,114,127658,121711
173,503,114,127648,121711
175,504,114,127640,121704
178,506,114,127619,121694
180,507,114,127616,121696
183,508,114,127599,121686
185,509,115,127590,121686
188,510,115,127579,121681
190,513,114,127573,121679
193,514,115,127570,121680
195,515,115,127556,121675
197,516,114,127550,121671
200,517,115,127538,121666
202,518,115,127530,121656
205,519,115,127523,121661
207,519,115,127525,121662
210,520,115,127516,121658
212,521,115,127516,121667
215,521,115,127522,121658
218,522,115,127514,121663
220,522,115,127517,121659
223,522,115,127504,121655
225,522,115,127501,121649
228,523,115,127496,121652
230,521,115,127508,121650
233,520,115,127506,121646
235,518,115,127507,121647
237,517,115,127500,121647
240,517,115,127501,121653
242,516,115,127506,121646
245,516,115,127506,121645
247,516,115,127489,121639
250,516,115,127496,121639
252,516,115,127499,121644
254,516,115,127502,121639
258,517,115,127495,121638
260,517,115,127500,121634
263,517,115,127499,121630
265,517,115,127502,121633
268,516,115,127502,121636
270,516,115,127501,121631
273,516,115,127506,121631
275,516,115,127507,121642
277,517,115,127512,121632
280,519,115,127510,121632
282,520,115,127510,121637
285,522,115,127514,121628
287,524,115,127515,121632
290,524,115,127515,121637
292,524,115,127526,121638
294,524,115,127523,121638
297,524,115,127541,121641
300,525,115,127541,121639
303,527,115,127531,121644
305,528,115,127551,121644
308,529,115,127545,121643
310,530,115,127559,121643
313,530,116,127561,121655
315,528,115,127566,121646
317,527,115,127566,121648
320,524,115,127573,121658
322,521,115,127571,121651
325,518,115,127571,121658
327,517,115,127574,121658
330,516,115,127588,121657
332,512,115,127593,121657
334,510,115,127593,121660
337,508,115,127588,121657
339,506,115,127594,121657
343,504,115,127598,121670
345,503,115,127598,121662
348,502,115,127600,121660
350,502,115,127594,121660
353,501,115,127602,121666
355,499,115,127607,121663
357,498,115,127607,121664
360,497,115,127615,121667
362,496,115,127622,121667
365,496,115,127623,121678
367,495,115,127623,121676
370,495,115,127620,121682
372,494,115,127622,121682
374,493,115,127634,121685
377,493,115,127638,121684
379,494,115,127627,121684
382,494,115,127634,121689
385,495,115,127634,121691
388,495,115,127638,121691
390,496,115,127638,121690
393,496,115,127636,121698
395,496,115,127654,121698
397,496,115,127646,121694
400,496,115,127650,121691
402,496,115,127645,121691
405,494,115,127645,121691
407,491,115,127654,121689
410,490,115,127649,121689
412,487,115,127649,121692
414,485,115,127647,121688
417,485,115,127642,121688
419,485,115,127651,121687
422,488,115,127651,121686
424,492,115,127648,121686
428,512,115,127648,121678
430,535,115,127644,121686
433,554,115,127649,121686
435,584,115,127649,121682
437,600,115,127646,121682
440,611,115,127640,121686
442,617,115,127640,121682
445,620,115,127654,121685
447,611,115,127647,121680
450,597,115,127640,121680
452,581,115,127639,121675
454,541,115,127639,121672
457,525,115,127634,121672
459,504,115,127637,121675
462,477,115,127637,121676
464,464,115,127633,121684
467,457,115,127641,121684
470,450,115,127629,121676
473,446,115,127629,121680
475,450,115,127637,121681
477,456,115,127633,121681
480,464,115,127648,121681
482,472,115,127643,121687
485,482,115,127643,121680
487,486,115,127648,121688
490,488,115,127644,121688
492,489,115,127648,121689
494,490,115,127648,121689
497,493,115,127651,121688
499,494,115,127653,121688
502,494,115,127656,121690
504,495,115,127658,121701
507,496,115,127665,121700
509,497,115,127671,121696
513,498,115,127668,121705
515,498,115,127674,121712
517,498,115,127674,121704
520,498,115,127667,121704
522,499,115,127674,121704
525,499,115,127667,121705
527,500,115,127665,121711
530,500,115,127676,121703
532,501,115,127673,121706
534,502,115,127663,121704
537,502,115,127666,121710
539,504,115,127674,121702
542,503,115,127683,121708
544,504,115,127685,121706
547,504,115,127686,121706
549,505,116,127684,121711
552,505,116,127691,121709
555,505,115,127682,121722
557,505,115,127685,121712
560,505,115,127697,121706
562,505,115,127691,121716
565,505,116,127689,121719
567,506,115,127690,121704
570,506,116,127691,121709
572,506,115,127698,121708
574,506,116,127695,121712
577,506,115,127695,121712
579,506,116,127709,121719
582,505,116,127709,121722
584,505,116,127708,121723
587,506,115,127709,121724
589,507,116,127710,121727
592,507,115,127718,121729
594,507,115,127716,121726
596,506,116,127716,121728
600,506,116,127725,121740
602,505,116,127727,121730
605,504,115,127712,121738
607,504,115,127719,121739
610,503,115,127727,121735
612,503,116,127715,121731
614,503,115,127722,121737
617,503,115,127711,121747
619,502,115,127702,121728
622,502,115,127706,121734
624,502,116,127694,121734
627,502,116,127686,121729
629,501,116,127677,121727
632,501,116,127662,121723
634,501,116,127664,121729
636,501,115,127645,121726
640,502,116,127642,121717
642,503,116,127623,121714
645,504,116,127603,121709
647,504,116,127599,121700
650,505,116,127581,121700
652,507,116,127570,121686
654,508,116,127560,121686
657,511,116,127552,121681
659,512,116,127537,121671
662,513,116,127530,121667
664,515,116,127525,121662
667,517,116,127515,121664
669,518,115,127500,121651
672,519,116,127494,121644
674,520,116,127481,121641
676,521,116,127487,121646
679,522,116,127474,121637
681,523,116,127472,121633
685,523,116,127469,121643
687,523,116,127471,121633
690,522,116,127460,121633
692,522,116,127456,121626
694,522,116,127455,121636
697,522,116,127459,121634
699,521,116,127449,121633
702,521,116,127451,121632
704,521,116,127445,121622
707,521,116,127453,121623
709,520,116,127445,121622
712,519,116,127454,121622
714,518,116,127455,121622
716,518,116,127454,121621
719,519,116,127457,121623
721,519,116,127450,121621
724,519,116,127455,121621
727,519,116,127456,121619
730,519,116,127451,121619
732,519,116,127456,121625
734,520,116,127465,121617
737,520,116,127470,121618
739,521,116,127461,121628
742,522,116,127464,121632
744,524,116,127464,121625
747,525,116,127472,121626
749,526,116,127476,121625
752,528,116,127476,121623
754,529,116,127490,121638
756,530,116,127489,121637
759,530,116,127489,121633
761,530,116,127489,121630
764,531,116,127489,121627
766,532,116,127494,121629
770,533,116,127492,121629
772,535,115,127505,121638
774,535,116,127500,121632
777,535,116,127500,121627
779,535,116,127500,121629
782,534,116,127504,121627
784,531,116,127504,121626
787,528,115,127504,121631
789,525,116,127510,121626
792,524,116,127502,121626
794,521,116,127520,121630
796,520,116,127511,121631
799,518,116,127518,121629
801,516,116,127518,121630
804,513,116,127522,121622
806,510,116,127522,121631
809,509,115,127522,121625
812,507,115,127521,121627
814,506,115,127523,121627
817,505,115,127530,121635
819,506,115,127530,121629
822,505,115,127533,121626
824,504,115,127541,121626
827,503,115,127543,121631
829,501,115,127535,121629
832,500,115,127534,121638
834,499,115,127537,121635
836,499,115,127543,121635
839,499,115,127532,121630
841,499,115,127532,121634
844,500,115,127539,121637
846,500,115,127544,121637
849,499,115,127548,121636
851,499,115,127540,121628
854,498,115,127540,121639
857,500,115,127541,121634
859,501,115,127546,121634
862,501,115,127543,121633
864,500,115,127543,121633
867,499,115,127538,121632
869,498,115,127526,121632
872,496,115,127549,121624
874,491,115,127535,121625
876,489,115,127535,121633
879,486,115,127533,121630
881,485,115,127533,121630
884,485,115,127531,121630
886,489,114,127531,121631
889,497,114,127523,121638
891,508,114,127530,121638
893,522,114,127531,121635
897,560,115,127539,121643
899,574,114,127531,121643
902,602,114,127531,121646
904,611,114,127534,121641
907,616,114,127538,121641
909,622,114,127538,121647
912,614,114,127538,121646
914,600,114,127541,121646
916,583,114,127545,121646
919,544,114,127541,121648
921,527,114,127550,121648
924,492,114,127550,121648
926,475,114,127552,121651
929,467,114,127543,121651
931,455,114,127543,121654
933,448,114,127548,121648
936,446,114,127551,121648
939,446,114,127555,121654
942,456,114,127555,121658
944,461,114,127553,121658
947,474,114,127553,121661
949,480,114,127565,121664
952,483,114,127569,121664
954,485,114,127569,121661
956,487,114,127583,121670
959,488,114,127572,121670
961,489,114,127572,121670
964,490,114,127578,121673
966,491,114,127582,121680
969,491,114,127591,121680
971,491,114,127595,121681
973,492,114,127595,121680
976,492,114,127600,121680
978,493,114,127600,121688
982,493,114,127600,121688
984,495,114,127604,121694
987,495,113,127614,121694
989,496,113,127615,121693
992,496,113,127615,121700
994,497,113,127621,121694
996,497,113,127619,121694
999,497,113,127628,121698
1001,497,113,127634,121704
1004,497,113,127634,121710
1006,498,113,127639,121710
1009,499,113,127638,121710
1011,500,113,127646,121712
1013,501,113,127646,121714
1016,501,113,127649,121714
1018,501,113,127651,121714
1021,501,113,127646,121722
1024,501,113,127657,121718
1027,501,113,127660,121721
1029,502,113,127672,121730
1032,502,113,127677,121737
1034,502,113,127681,121737
1036,502,113,127681,121747
1039,502,113,127687,121747
1041,502,113,127691,121737
1044,502,113,127699,121749
1046,502,113,127691,121744
1049,502,113,127699,121752
1051,502,113,127713,121754
1053,501,113,127712,121752
1056,501,113,127711,121759
1058,501,113,127702,121751
1061,501,113,127714,121763
1063,500,113,127706,121756
1067,500,113,127707,121765
1069,500,113,127718,121764
1072,500,113,127712,121760
1074,499,113,127711,121760
1076,498,113,127704,121757
1079,498,113,127691,121763
1081,497,113,127679,121752
1084,497,113,127670,121739
1086,497,113,127655,121740
1089,497,113,127651,121735
1091,496,112,127640,121732
1093,496,113,127630,121733
1096,496,113,127629,121723
1098,496,112,127622,121726
1101,497,112,127588,121721
1103,497,113,127595,121720
1106,497,112,127576,121708
1108,498,113,127568,121702
1112,499,113,127547,121702
1114,500,113,127539,121683
1116,502,112,127514,121696
1119,504,112,127510,121685
1121,505,112,127495,121681
1124,507,112,127495,121678
1126,510,112,127482,121669
1129,510,112,127475,121675
1131,511,112,127466,121660
1133,512,112,127470,121656
1136,514,112,127453,121662
1138,515,112,127450,121656
1141,515,113,127457,121654
1143,517,112,127452,121650
1146,517,112,127462,121656
1148,518,112,127455,121657
1152,517,113,127440,121652
1154,517,112,127446,121649
1156,518,112,127449,121652
1159,518,112,127442,121647
1161,517,112,127436,121648
1164,517,112,127445,121647
1166,517,113,127441,121644
1169,517,112,127440,121649
1171,517,113,127440,121648
1173,517,112,127440,121648
1176,515,112,127434,121643
1178,514,112,127440,121652
1181,513,112,127442,121650
1183,513,112,127450,121646
1186,512,112,127453,121647
1188,513,113,127443,121652
1191,513,112,127445,121643
1193,513,112,127449,121649
1196,513,112,127457,121646
1199,513,112,127451,121651
1201,513,112,127443,121651
1204,513,112,127460,121657
1206,513,112,127462,121656
1209,513,112,127461,121655
1211,514,112,127466,121655
1213,516,112,127466,121643
1216,517,112,127462,121659
1218,518,112,127467,121657
1221,520,112,127465,121658
1223,522,112,127484,121658
1226,523,112,127479,121663
1228,523,112,127490,121665
1231,523,112,127478,121670
1233,523,112,127489,121667
1235,524,112,127491,121659
1239,524,112,127493,121670
1241,526,112,127493,121666
1244,529,112,127492,121666
1246,529,112,127506,121665
1249,530,112,127502,121667
1251,529,112,127506,121666
1253,528,112,127502,121674
1256,524,112,127509,121671
1258,522,112,127516,121667
1261,519,112,127521,121677
1263,516,112,127522,121676
1266,515,112,127528,121685
1268,514,112,127541,121678
1271,513,112,127541,121689
1273,511,112,127557,121684
1275,509,112,127555,121684
1278,506,112,127561,121689
1281,505,112,127561,121691
1284,505,112,127561,121691
1286,504,112,127569,121696
1289,504,112,127568,121696
1291,502,112,127578,121705
1293,502,112,127580,121694
1296,501,112,127578,121695
1298,501,112,127578,121696
1301,500,112,127591,121698
1303,500,112,127577,121707
1306,500,112,127577,121700
1308,499,112,127591,121700
1311,498,112,127583,121700
1313,496,112,127594,121705
1315,496,112,127586,121704
1318,496,112,127591,121700
1320,496,112,127591,121703
1324,497,112,127593,121706
1326,497,112,127588,121706
1329,497,112,127588,121705
1331,497,112,127595,121701
1333,497,112,127600,121701
1336,497,112,127601,121712
1338,496,112,127601,121711
1341,495,112,127591,121709
1343,493,112,127589,121709
1346,491,112,127598,121707
1348,487,112,127587,121704
1351,486,112,127593,121707
1353,484,112,127593,121701
1355,485,112,127591,121701
1358,494,112,127593,121705
1360,502,112,127593,121713
1363,520,112,127591,121704
1366,538,112,127598,121704
1369,561,112,127607,121714
1371,599,112,127596,121704
1373,610,112,127596,121710
1376,619,112,127595,121705
1643,517,109,127374,121617
1645,516,109,127367,121620
1648,516,109,127374,121620
1650,515,109,127368,121628
1652,515,109,127363,121619
1655,514,109,127366,121613
1657,514,109,127367,121611
1660,513,109,127365,121618
1662,513,109,127364,121618
1666,512,109,127370,121620
1668,512,109,127362,121613
1671,512,109,127346,121613
1673,512,109,127361,121610
1675,512,109,127369,121616
1678,511,108,127366,121611
1680,511,108,127356,121609
1683,511,108,127352,121609
1685,513,108,127357,121611
1688,514,108,127362,121614
1690,514,108,127361,121610
1692,514,108,127359,121614
1695,516,108,127356,121613
1697,515,108,127353,121612
1700,515,108,127360,121609
1702,515,108,127362,121613
1705,515,108,127351,121611
1708,515,108,127364,121617
1711,515,108,127362,121607
1713,516,108,127362,121611
1715,518,108,127376,121619
1718,520,108,127370,121624
1720,521,108,127381,121627
1723,523,108,127379,121619
1725,525,108,127384,121627
1728,525,108,127397,121630
1730,525,108,127399,121638
1732,525,108,127400,121631
1735,525,108,127408,121639
1737,526,108,127414,121648
1740,528,108,127422,121640
1742,529,108,127430,121653
1745,529,108,127428,121650
1747,529,108,127429,121647
1751,528,108,127434,121656
1753,524,108,127444,121657
1755,521,108,127439,121649
1758,519,107,127449,121655
1760,516,108,127447,121653
1763,514,107,127445,121658
1765,513,107,127456,121659
1768,512,107,127457,121659
1770,510,107,127457,121658
1772,508,107,127453,121664
1775,505,107,127460,121669
1777,503,107,127456,121661
1780,501,107,127456,121655
1782,499,107,127461,121660
1785,499,107,127454,121659
1787,499,107,127461,121666
1790,498,107,127461,121668
1793,498,107,127462,121661
1795,498,107,127454,121661
1798,496,107,127457,121662
1800,496,107,127455,121660
1803,495,107,127455,121654
1805,495,107,127448,121654
1808,496,107,127450,121654
1810,496,107,127455,121662
1812,496,107,127448,121655
1815,496,107,127448,121663
1817,496,106,127448,121661
1820,495,107,127445,121653
1822,495,106,127439,121652
1825,495,106,127439,121656
1827,496,106,127436,121648
1830,496,106,127436,121648
1832,496,106,127445,121665
1835,496,106,127447,121662
1838,494,106,127449,121663
1840,492,106,127449,121662
1843,488,106,127441,121662
1845,486,106,127445,121667
1848,485,106,127445,121672
1850,485,106,127461,121675
1852,487,106,127465,121675
1855,501,106,127469,121680
1857,512,106,127469,121677
1860,534,106,127473,121670
1862,554,106,127471,121670
1865,579,106,127472,121676
1867,610,106,127472,121668
1870,619,106,127464,121680
1872,631,106,127477,121672
1874,634,106,127470,121672
1878,625,106,127472,121674
1880,609,106,127472,121675
1883,582,105,127472,121677
1885,560,105,127468,121677
1888,534,106,127484,121672
1890,493,105,127475,121671
1892,480,105,127475,121669
1895,465,105,127465,121664
1897,457,105,127470,121664
1900,450,105,127457,121661
1902,444,105,127457,121663
1905,447,105,127455,121660
1907,452,105,127459,121660
1910,459,105,127466,121667
1912,473,105,127452,121659
1914,477,105,127452,121666
1917,481,105,127466,121673
1920,483,105,127471,121673
1923,484,105,127473,121667
1925,487,105,127473,121669
1928,488,105,127480,121678
1930,489,104,127478,121678
1932,489,104,127480,121673
1935,490,104,127486,121676
1937,490,104,127490,121676
1940,491,104,127490,121677
1942,492,104,127486,121677
1945,493,104,127484,121677
1947,494,104,127484,121679
1950,494,104,127495,121674
1952,495,104,127508,121674
1954,495,104,127508,121679
1957,496,104,127504,121683
1959,496,104,127508,121683
1963,496,104,127508,121681
1965,497,104,127506,121674
1968,498,104,127503,121674
1970,499,104,127503,121677
1972,500,104,127508,121674
1975,500,104,127498,121674
1977,500,104,127507,121676
1980,501,104,127507,121673
1982,502,104,127500,121673
1985,503,104,127500,121677
1987,503,103,127516,121687
1990,503,103,127505,121687
1992,503,104,127505,121682
1994,503,103,127524,121686
1997,503,103,127522,121704
1999,503,103,127522,121691
2002,502,103,127529,121699
2004,502,103,127531,121706
2008,502,103,127544,121706
2010,503,103,127566,121706
2012,503,103,127566,121717
2015,504,103,127548,121717
2017,504,103,127560,121721
2020,504,103,127560,121729
2022,504,103,127569,121733
2025,505,103,127568,121733
2027,504,103,127569,121739
2030,503,103,127569,121745
2032,503,103,127569,121745
2034,502,103,127569,121744
2037,501,103,127565,121744
2039,501,103,127568,121749
2042,501,103,127560,121739
2044,501,103,127546,121741
2048,500,103,127549,121741
2050,500,103,127527,121736
2052,499,103,127523,121731
2055,499,103,127500,121728
2057,500,103,127492,121721
2060,500,103,127464,121723
2062,500,103,127464,121702
2065,501,103,127441,121700
2067,501,102,127421,121700
2070,501,102,127414,121695
2072,501,102,127411,121696
2074,502,103,127390,121678
2077,502,102,127379,121682
2079,504,102,127363,121674
2082,504,102,127346,121667
2084,505,102,127334,121667
2087,506,102,127334,121651
2089,508,102,127325,121651
2092,509,102,127314,121650
2095,510,102,127297,121650
2097,511,102,127292,121637
2100,512,102,127295,121634
2102,515,102,127285,121634
2105,515,102,127282,121635
2107,516,102,127286,121627
2110,516,102,127287,121627
2112,517,102,127286,121632
2114,517,102,127290,121630
2117,517,102,127274,121636
2119,518,102,127292,121637
2122,518,102,127304,121630
2124,518,102,127299,121634
2127,518,102,127291,121624
2129,518,102,127289,121623
2131,518,102,127286,121634
2135,518,102,127294,121635
2137,516,102,127286,121626
2140,515,102,127284,121631
2142,515,102,127306,121634
2145,514,102,127300,121644
2147,513,102,127302,121634
2150,512,102,127304,121640
2152,511,102,127310,121639
2154,511,102,127304,121637
2157,511,102,127305,121644
2159,511,102,127310,121640
2162,510,102,127321,121638
2164,512,102,127311,121640
2167,512,102,127304,121641
2169,513,102,127313,121637
2171,513,102,127321,121639
2174,514,102,127314,121646
2177,514,102,127323,121648
2180,514,102,127320,121639
2182,513,102,127335,121642
2185,513,102,127341,121646
2187,513,102,127343,121646
2190,512,102,127334,121652
2192,512,102,127350,121652
2194,512,101,127352,121652
2197,513,102,127354,121650
2199,514,102,127358,121653
2202,514,102,127366,121657
2204,514,101,127363,121662
2207,514,102,127374,121659
2209,515,101,127375,121662
2211,515,102,127378,121665
2214,516,102,127391,121669
2216,516,101,127391,121672
2220,516,102,127391,121663
2222,515,101,127400,121659
2225,515,102,127401,121669
2227,515,102,127406,121669
2230,516,102,127418,121672
2232,516,102,127418,121675
2234,516,101,127433,121673
2237,515,102,127419,121677
2239,515,101,127427,121671
2242,514,101,127428,121680
2244,513,101,127447,121684
2247,512,101,127446,121680
2249,512,102,127451,121678
2251,512,101,127458,121676
2254,512,101,127463,121682
2256,512,101,127470,121686
2259,512,101,127472,121691
2262,512,101,127481,121690
2265,511,102,127489,121694
2267,510,101,127487,121693
2270,510,101,127492,121691
2272,510,101,127499,121699
2274,510,101,127498,121705
2277,512,101,127508,121700
2279,514,102,127512,121707
2282,515,102,127509,121707
2284,519,102,127504,121691
2287,520,102,127510,121701
2289,521,102,127508,121701
2291,521,102,127506,121705
2294,521,102,127516,121708
2296,520,102,127508,121704
2299,521,102,127503,121698
2301,522,102,127515,121701
2305,522,102,127515,121705
2307,522,102,127513,121697
2310,522,102,127500,121697
2312,520,102,127519,121699
2314,518,102,127515,121702
2317,515,102,127517,121696
2319,511,102,127511,121699
2322,510,102,127518,121695
2324,508,102,127524,121699
2327,507,102,127524,121705
2329,506,102,127522,121710
2331,505,102,127526,121710
2334,502,102,127529,121712
2336,500,102,127537,121703
2339,498,102,127533,121714
2341,497,102,127538,121720
2344,497,102,127547,121719
2347,496,101,127540,121721
2350,496,101,127547,121727
2352,495,101,127555,121721
2354,494,101,127555,121719
2357,494,101,127551,121732
2359,493,102,127555,121729
2362,493,101,127555,121724
2364,493,101,127557,121724
2367,493,101,127560,121724
2369,493,101,127557,121723
2371,493,101,127557,121733
2374,493,101,127568,121729
2376,493,101,127564,121729
2379,494,101,127560,121738
2381,494,101,127576,121732
2384,494,101,127576,121739
2386,494,101,127572,121739
2390,495,101,127582,121735
2392,495,101,127579,121745
2394,494,101,127579,121749
2397,493,101,127583,121746
2399,492,101,127594,121746
2402,491,101,127604,121753
2404,491,101,127600,121748
2407,492,101,127592,121751
2409,496,101,127592,121748
2411,502,101,127604,121751
2414,512,101,127602,121745
2416,522,102,127606,121745
2419,558,102,127612,121743
2421,579,102,127612,121745
2424,606,103,127606,121749
2426,623,103,127614,121749
2429,635,103,127611,121742
2432,643,104,127611,121742
2434,643,104,127603,121746
2437,633,105,127611,121741
2439,613,105,127611,121745
2442,585,105,127617,121743
2444,563,105,127620,121743
2447,541,106,127629,121741
2449,502,106,127629,121752
2451,483,106,127634,121753
2454,470,107,127639,121753
2456,462,107,127644,121754
2459,451,107,127644,121760
2461,450,108,127652,121760
2464,452,108,127663,121767
2466,463,108,127663,121776
2469,471,108,127662,121775
2471,476,108,127673,121775
2473,480,109,127676,121783
2477,485,109,127676,121778
2479,487,109,127678,121782
2482,488,110,127676,121782
2484,489,110,127678,121781
2487,489,110,127678,121786
2489,490,110,127688,121786
2491,491,110,127688,121787
2494,491,111,127688,121785
2496,492,111,127690,121779
2499,492,111,127684,121779
2501,493,111,127691,121780
2504,494,111,127691,121778
2506,494,111,127693,121784
2509,495,112,127687,121784
2511,496,112,127687,121785
2513,496,112,127699,121790
2516,496,112,127694,121789
2519,497,112,127694,121792
2522,498,112,127705,121792
2524,498,113,127706,121792
2527,499,113,127706,121790
2529,500,113,127709,121797
2531,501,113,127711,121797
2534,502,113,127714,121797
2536,502,113,127717,121805
2539,502,113,127717,121801
2541,502,114,127724,121801
2544,503,114,127721,121801
2546,502,114,127721,121802
2549,502,114,127721,121810
2551,502,114,127738,121804
2553,502,114,127733,121804
2556,502,114,127739,121811
2558,502,114,127739,121815
2562,502,115,127743,121807
2564,503,115,127746,121809
2567,504,115,127739,121803
2569,504,115,127747,121817
2571,504,115,127747,121818
2574,503,115,127737,121811
2576,504,115,127734,121811
2579,504,115,127735,121812
2581,504,115,127728,121804
2584,505,115,127723,121808
2586,505,115,127716,121806
2589,505,116,127702,121806
2591,505,116,127702,121794
2593,505,116,127690,121794
2596,504,116,127676,121794
2598,504,116,127671,121788
2601,503,116,127650,121776
2604,503,116,127645,121774
2607,502,116,127618,121770
2609,501,116,127604,121759
2611,501,116,127581,121751
2614,501,116,127557,121742
2616,501,116,127531,121729
2619,501,116,127512,121724
2621,501,116,127505,121711
2624,501,116,127482,121697
2626,502,116,127463,121696
2629,501,117,127451,121687
2631,502,116,127427,121665
2633,502,117,127414,121665
2636,503,116,127396,121659
2638,503,117,127372,121648
2641,503,117,127358,121639
2643,504,117,127345,121623
2647,504,117,127319,121610
2649,506,117,127316,121604
2651,508,117,127316,121599
2654,510,117,127292,121589
2656,511,117,127290,121576
2659,513,117,127267,121581
2661,514,117,127269,121569
2664,515,117,127258,121571
2666,515,117,127253,121561
2669,515,117,127246,121570
2671,515,117,127246,121559
2673,515,117,127238,121557
2676,515,117,127238,121560
2678,515,117,127234,121551
2681,515,117,127229,121551
2683,514,118,127230,121550
2686,514,117,127226,121552
2689,514,118,127220,121543
2691,514,117,127219,121543
2694,514,117,127217,121543
2696,514,117,127216,121548
2699,514,117,127217,121540
2701,513,118,127214,121537
2704,511,118,127223,121536
2706,510,118,127216,121537
2709,509,118,127202,121535
2711,508,118,127216,121533
2713,508,118,127209,121535
2716,508,118,127217,121539
2718,508,118,127211,121534
2721,508,118,127211,121532
2723,508,118,127214,121533
2726,507,118,127201,121530
2728,507,118,127208,121531
2731,507,118,127204,121529
2734,507,118,127204,121521
2736,507,118,127209,121540
2739,507,118,127206,121527
2741,507,118,127204,121523
2744,507,118,127208,121523
2746,507,118,127204,121529
2749,507,118,127217,121531
2751,507,118,127213,121531
2753,508,118,127224,121540
2756,508,118,127228,121538
2758,509,118,127214,121534
2761,509,118,127229,121539
2763,511,118,127232,121537
2766,511,118,127234,121543
2768,511,118,127242,121544
2770,512,118,127253,121540
2774,512,118,127252,121549
2776,512,118,127251,121545
2779,513,118,127263,121526
2781,513,118,127269,121560
2784,513,118,127274,121567
2786,513,118,127280,121562
2789,514,118,127280,121562
2791,513,118,127287,121566
2793,513,118,127292,121560
2796,512,118,127294,121566
2798,512,118,127304,121564
2801,512,118,127303,121570
2803,512,118,127314,121576
2806,512,118,127321,121582
2808,511,118,127335,121590
2810,511,118,127332,121592
2813,510,118,127345,121596
2816,510,118,127352,121598
2819,510,118,127359,121591
2821,510,118,127370,121600
2824,510,118,127367,121605
2826,509,118,127381,121611
2829,508,118,127381,121613
2831,508,118,127393,121609
2833,507,118,127395,121609
2836,507,118,127399,121619
2838,508,118,127401,121614
2841,507,118,127401,121625
2843,507,118,127407,121621
2846,507,118,127410,121621
2848,506,118,127416,121633
2850,506,118,127423,121637
2853,506,118,127424,121626
2855,506,118,127424,121636
2859,505,118,127429,121638
2861,506,118,127429,121637
2864,505,118,127429,121635
2866,505,118,127431,121640
2869,505,118,127438,121640
2871,504,118,127439,121639
2873,504,118,127432,121639
2876,503,118,127435,121643
2878,503,118,127435,121637
2881,503,118,127435,121643
2883,502,118,127434,121643
2886,502,118,127434,121641
2888,502,118,127439,121639
2890,502,118,127439,121639
2893,503,118,127447,121645
2895,503,118,127447,121643
2898,503,118,127435,121638
2900,504,118,127441,121638
2904,506,118,127442,121637
2906,510,118,127456,121648
2909,511,118,127444,121648
2911,514,118,127454,121650
2913,514,118,127455,121650
2916,514,118,127456,121639
2918,514,118,127456,121651
2921,514,118,127465,121655
2923,515,118,127461,121655
2926,516,118,127472,121655
2928,518,118,127468,121654
2930,519,118,127468,121659
2933,520,118,127477,121653
2935,520,117,127476,121653
2938,518,118,127475,121659
2940,514,117,127475,121646
2944,511,118,127475,121656
2946,509,118,127481,121656
2949,507,118,127481,121657
2951,506,117,127477,121656
2953,504,117,127477,121657
2956,503,117,127490,121663
2958,502,117,127489,121663
2961,500,117,127489,121667
2963,498,117,127489,121657
2966,497,117,127497,121664
2968,497,117,127494,121664
2970,496,117,127502,121660
2973,497,117,127512,121660
2975,496,117,127509,121660
2978,495,117,127509,121665
2980,495,117,127514,121667
2983,495,117,127512,121667
2985,495,117,127512,121667
2989,496,117,127521,121666
2991,496,117,127520,121666
2993,495,117,127527,121663
2996,495,117,127525,121678
2998,495,117,127540,121678
3001,495,117,127540,121674
3003,495,117,127541,121679
3006,495,117,127536,121679
3008,495,117,127536,121683
3010,496,117,127561,121682
3013,496,117,127563,121682
3015,497,117,127569,121689
3018,496,117,127569,121695
3020,495,117,127567,121695
3023,493,117,127567,121696
3025,493,117,127575,121695
3028,493,117,127580,121695
3031,494,117,127580,121692
3033,496,117,127587,121697
3036,504,117,127586,121697
3038,516,117,127586,121698
3041,535,117,127583,121698
3043,559,117,127584,121695
3046,579,117,127588,121695
3048,597,117,127591,121697
3050,622,117,127591,121695
3053,626,118,127576,121695
3055,629,118,127585,121691
3058,626,118,127585,121690
3060,614,118,127586,121690
3063,594,118,127579,121685
3065,570,118,127582,121687
3068,529,118,127582,121682
3070,506,118,127586,121678
3073,491,118,127576,121678
3076,476,118,127588,121685
3078,464,118,127595,121690
3081,456,118,127591,121684
3083,448,118,127600,121690
3086,449,118,127592,121689
3088,454,117,127606,121690
3090,461,118,127606,121680
3093,475,118,127604,121684
3095,479,118,127603,121684
3098,483,117,127606,121690
3100,485,118,127607,121687
3103,487,117,127616,121682
3105,489,118,127616,121686
3108,490,118,127620,121688
3110,490,118,127620,121693
3112,491,118,127620,121693
3116,491,118,127617,121691
3118,492,118,127622,121686
3121,492,118,127628,121687
3123,494,118,127641,121691
3126,496,118,127622,121689
3128,496,118,127625,121691
3130,497,118,127625,121695
3133,498,117,127629,121691
3135,499,118,127632,121698
3138,499,118,127625,121695
3140,499,118,127634,121691
3143,499,118,127642,121694
3145,500,118,127641,121698
3148,500,118,127647,121701
3150,500,118,127640,121700
3152,501,118,127645,121704
3155,502,118,127653,121704
3158,503,118,127662,121712
3161,503,118,127654,121717
3163,503,118,127668,121716
3166,503,118,127672,121721
3168,502,118,127667,121719
3170,502,118,127673,121718
3173,503,118,127677,121718
3175,503,117,127682,121715
3178,504,118,127673,121713
3180,504,118,127676,121720
3183,504,118,127681,121716
3185,504,118,127674,121722
3188,504,118,127676,121725
3190,504,118,127681,121718
3192,504,118,127674,121708
3195,505,118,127667,121715
3197,505,118,127676,121715
3201,506,118,127671,121709
3203,506,118,127675,121712
3206,506,118,127644,121712
3208,506,118,127650,121706
3210,506,118,127642,121703
3213,505,118,127633,121699
3215,505,118,127618,121693
3218,505,118,127610,121687
3220,505,118,127600,121682
3223,505,118,127577,121678
3225,504,118,127569,121670
3228,504,118,127532,121657
3230,504,118,127529,121655
3232,504,118,127501,121651
3235,504,118,127485,121640
3237,504,118,127469,121637
3240,503,118,127448,121624
3243,503,118,127424,121614
3246,503,118,127404,121612
3248,503,118,127377,121603
3250,503,118,127373,121600
3253,503,118,127342,121589
3255,503,118,127325,121581
3258,504,118,127312,121568
3260,504,118,127296,121553
3263,505,118,127279,121547
3265,506,118,127268,121541
3268,506,118,127253,121530
3270,507,118,127241,121534
3272,507,118,127246,121525
3275,508,118,127220,121515
3277,509,118,127217,121512
3280,510,118,127205,121514
3282,511,118,127201,121508
3286,511,118,127205,121502
3288,512,118,127197,121500
3290,513,118,127181,121493
3293,514,118,127184,121500
3295,514,118,127185,121500
3298,515,118,127177,121470
3300,514,118,127181,121490
3303,514,118,127174,121495
3305,513,118,127170,121481
3308,513,118,127169,121489
3310,514,118,127159,121487
3312,515,118,127155,121479
3315,515,118,127157,121476
3317,515,118,127153,121476
3320,514,118,127150,121478
3322,513,118,127158,121469
3325,512,118,127149,121474
3328,512,118,127153,121466
3330,511,118,127147,121468
3333,510,118,127141,121463
3335,510,118,127148,121459
3338,509,118,127139,121461
3340,509,118,127138,121463
3343,509,118,127137,121458
3345,508,118,127150,121464
3348,507,118,127150,121458
3350,508,118,127143,121454
3352,508,118,127143,121454
3355,508,118,127145,121457
3357,508,118,127138,121457
3360,507,118,127138,121464
3362,507,118,127139,121459
3365,507,118,127144,121459
3367,508,118,127157,121467
3369,508,118,127158,121473
3373,508,118,127165,121467
3375,508,118,127165,121474
3378,509,118,127161,121475
3380,510,118,127167,121473
3383,510,118,127167,121472
3385,510,118,127167,121470
3388,510,118,127171,121470
3390,511,118,127185,121482
3392,511,118,127183,121475
3395,511,118,127180,121472
3397,511,118,127180,121471
3400,512,118,127189,121486
3402,512,118,127200,121481
3405,513,118,127200,121486
3407,513,118,127209,121483
3409,512,118,127213,121483
3412,512,118,127222,121485
3415,512,118,127222,121485
3418,512,118,127225,121488
3420,513,118,127230,121488
3423,513,118,127240,121491
3425,513,118,127253,121501
3428,513,118,127247,121507
3430,513,118,127264,121504
3432,513,118,127257,121504
3435,512,118,127271,121498
3437,512,118,127271,121511
3440,512,118,127270,121510
3442,512,118,127275,121510
3445,512,118,127300,121516
3447,511,118,127293,121515
3449,510,118,127293,121515
3452,510,118,127296,121517
3454,510,118,127307,121517
3458,510,118,127308,121520
3460,510,118,127308,121521
3463,510,118,127305,121530
3465,510,118,127311,121530
3468,509,118,127325,121532
3470,507,118,127323,121524
3472,506,118,127323,121534
3475,505,118,127328,121534
3477,505,118,127329,121532
3480,505,118,127332,121534
3482,505,118,127332,121541
3485,505,118,127337,121539
3487,505,118,127339,121539
3489,505,118,127339,121541
3492,504,118,127335,121543
3494,504,118,127344,121543
3497,503,118,127344,121544
3500,503,118,127346,121550
3503,503,118,127350,121550
3505,502,118,127350,121549
3508,502,118,127362,121547
3510,503,118,127353,121547
3512,503,118,127365,121551
3515,502,118,127363,121561
3517,502,118,127369,121561
3520,502,118,127369,121555
3522,502,118,127364,121558
3525,503,118,127362,121558
3527,502,118,127362,121560
3529,502,118,127371,121561
3532,502,118,127362,121561
3534,502,118,127374,121551
3537,503,118,127374,121564
3539,503,118,127374,121564
3543,504,118,127374,121556
3545,506,118,127374,121561
3548,507,118,127370,121561
3550,509,118,127370,121555
3552,511,118,127384,121551
3555,513,118,127367,121561
3557,514,118,127367,121555
3560,514,118,127374,121558
3562,514,118,127373,121556
3565,515,118,127367,121556
3567,515,118,127380,121556
3569,518,118,127380,121560
3572,519,118,127371,121560
3574,519,118,127380,121559
3577,519,118,127380,121552
3579,517,118,127372,121552
3582,515,118,127373,121550
3585,512,118,127380,121561
3588,509,118,127380,121557
3590,508,118,127389,121563
3592,508,118,127395,121563
3595,507,118,127400,121567
3597,506,118,127400,121574
3600,505,118,127398,121563
3602,502,118,127407,121568
3605,501,118,127409,121576
3607,500,118,127422,121577
3609,500,118,127422,121582
3612,499,118,127425,121582
3614,499,118,127420,121582
3617,498,118,127420,121573
3619,497,118,127416,121576
3622,497,118,127423,121577
3624,498,118,127431,121578
3628,498,118,127436,121584
3630,498,118,127433,121580
3632,498,118,127433,121580
3635,498,118,127448,121580
3637,498,118,127444,121580
3640,498,118,127449,121583
3642,499,118,127442,121581
3645,499,118,127451,121585
3647,500,118,127463,121589
3649,500,118,127455,121585
3652,501,118,127457,121586
3654,501,118,127458,121597
3657,501,118,127469,121602
3659,501,118,127465,121603
3662,499,118,127461,121595
3664,498,118,127479,121598
3667,497,118,127478,121599
3670,496,118,127487,121598
3672,497,118,127492,121605
3675,499,118,127495,121610
3677,503,118,127495,121606
3680,510,118,127500,121612
3682,536,118,127498,121609
3685,551,118,127496,121620
3687,572,118,127508,121612
3689,594,118,127508,121614
3692,621,118,127522,121612
3694,625,118,127523,121618
3697,628,118,127520,121624
3699,628,118,127527,121621
3702,621,118,127525,121628
3704,590,118,127532,121626
3707,567,118,127534,121627
3709,544,118,127536,121630
3712,525,118,127534,121628
3715,491,118,127529,121627
3717,477,118,127536,121635
3720,467,118,127534,121632
3722,461,118,127540,121630
3725,455,118,127551,121625
3727,454,118,127548,121632
3729,458,118,127553,121636
3732,471,118,127553,121635
3734,476,118,127556,121629
3737,481,118,127559,121634
3739,486,118,127565,121634
3742,489,118,127569,121647
3744,492,118,127580,121641
3747,493,118,127573,121646
3749,494,118,127586,121652
3751,494,118,127581,121646
3755,494,118,127586,121643
3757,495,118,127595,121657
3760,496,118,127595,121647
3762,497,118,127598,121650
3765,498,118,127593,121652
3767,498,118,127604,121658
3769,498,118,127603,121659
3772,499,118,127607,121654
3774,500,118,127596,121658
3777,501,118,127603,121657
3779,502,118,127602,121653
3782,502,118,127598,121649
3784,503,118,127598,121652
3787,504,118,127603,121653
3789,504,118,127604,121650
3791,504,118,127610,121655
3794,505,118,127604,121651
3796,506,118,127609,121655
3800,506,118,127604,121651
3802,507,118,127608,121653
3805,508,118,127606,121655
3807,508,118,127626,121655
3809,507,118,127618,121658
3812,507,118,127618,121654
3814,508,118,127630,121670
3817,508,118,127631,121665
3819,507,118,127634,121661
3822,507,118,127633,121668
3824,507,118,127635,121670
3827,507,118,127636,121667
3829,507,118,127635,121666
3831,507,118,127632,121671
3834,508,118,127638,121677
3836,509,118,127643,121662
3840,509,118,127646,121666
3842,508,118,127639,121647
3845,508,118,127633,121666
3847,508,118,127628,121665
3849,508,118,127617,121660
3852,507,118,127612,121661
3854,507,118,127605,121648
3857,507,118,127594,121642
3859,508,118,127588,121639
3862,508,118,127588,121637
3864,508,118,127554,121629
3867,508,117,127536,121629
3869,507,118,127525,121616
3871,507,118,127506,121610
3874,507,118,127492,121606
3876,507,117,127474,121596
3879,507,118,127451,121585
3881,506,117,127437,121582
3885,506,117,127437,121572
3887,505,117,127395,121569
3889,506,117,127376,121569
3892,506,117,127368,121552
3894,506,117,127346,121539
3897,507,117,127329,121543
3899,508,117,127314,121533
3902,508,118,127304,121529
3904,508,117,127281,121515
3907,508,118,127281,121498
3909,509,117,127249,121492
3911,509,118,127239,121492
3914,509,118,127230,121479
3916,510,118,127220,121468
3919,510,117,127220,121466
3921,510,117,127192,121458
3924,511,118,127185,121458
3927,513,117,127175,121441
3929,513,117,127175,121441
3932,514,117,127156,121431
3934,515,118,127152,121431
3937,515,118,127158,121433
3939,515,118,127158,121422
3942,515,117,127145,121423
3944,515,117,127131,121423
3947,515,118,127131,121415
3949,515,118,127133,121415
3951,515,117,127133,121413
3954,515,118,127126,121411
3956,515,117,127119,121411
3959,515,117,127132,121412
3961,514,117,127123,121404
3964,514,118,127123,121406
3966,514,117,127123,121404
3969,513,117,127113,121404
3972,513,117,127111,121403
3974,513,117,127113,121403
3977,512,118,127119,121398
3979,512,118,127119,121401
3982,511,117,127116,121403
3984,510,118,127120,121403
3987,510,117,127114,121400
3989,510,118,127114,121395
3991,509,117,127113,121398
3994,509,118,127113,121395
3996,509,117,127113,121393
3999,509,117,127109,121388
4001,509,118,127114,121388
4004,508,118,127115,121385
4006,508,117,127115,121391
4008,508,118,127114,121387
4012,509,117,127115,121387
4014,509,117,127118,121390
4017,509,117,127118,121386
4019,509,118,127110,121386
4022,509,117,127121,121390
4024,510,117,127121,121392
4027,512,118,127118,121388
4029,512,118,127134,121388
4031,513,118,127141,121395
4034,513,117,127141,121397
4036,514,117,127152,121396
4039,514,117,127146,121396
4041,515,117,127156,121396
4044,515,117,127156,121400
4046,514,118,127163,121400
4048,513,117,127173,121407
4051,514,117,127173,121410
4054,514,118,127183,121418
4057,515,118,127192,121418
4059,516,117,127197,121418
4062,515,117,127197,121425
4064,515,118,127205,121427
4067,515,117,127204,121427
4069,515,118,127204,121420
4071,515,117,127221,121432
4074,514,117,127224,121434
4076,514,118,127224,121437
4079,514,117,127234,121448
4081,514,117,127237,121448
4084,514,118,127244,121448
4086,513,117,127266,121457
4088,513,117,127266,121454
4091,512,118,127257,121454
4093,512,118,127272,121464
4097,510,117,127272,121462
4099,510,117,127274,121462
4102,510,117,127277,121467
4104,510,117,127282,121474
4107,509,118,127282,121479
4109,509,117,127290,121476
4111,509,117,127291,121476
4114,509,117,127294,121476
4116,509,117,127299,121484
4119,508,117,127309,121481
4121,507,117,127315,121477
4124,507,117,127305,121480
4126,506,117,127316,121486
4128,506,118,127316,121489
4131,506,117,127321,121489
4133,506,118,127321,121489
4136,505,117,127323,121498
4139,505,117,127328,121495
4142,505,117,127330,121497
4144,505,117,127328,121499
4147,505,117,127343,121499
4149,504,117,127342,121508
4151,504,117,127342,121511
4154,504,117,127347,121511
4156,503,117,127344,121504
4159,503,117,127358,121508
4161,502,117,127347,121507
4164,503,117,127350,121504
4166,504,117,127363,121509
4168,504,117,127366,121514
4171,505,117,127362,121516
4173,506,117,127362,121511
4176,508,117,127367,121518
4178,512,117,127364,121518
4182,514,117,127367,121524
4184,516,118,127373,121522
4187,516,117,127381,121525
4189,517,117,127378,121524
4191,517,117,127372,121526
4194,517,117,127378,121524
4196,518,117,127378,121528
4199,519,117,127382,121527
4201,520,118,127380,121530
4204,520,117,127380,121540
4206,519,117,127395,121533
4208,518,117,127400,121540
4211,513,117,127408,121542
4213,511,117,127401,121547
4216,510,117,127403,121543
4218,509,117,127405,121547
4221,508,117,127416,121554
4224,505,117,127414,121558
4227,504,117,127412,121554
4229,502,117,127425,121551
4231,500,117,127432,121560
4234,498,117,127434,121558
4236,498,118,127437,121562
4239,497,117,127448,121561
4241,497,117,127445,121565
4244,497,117,127448,121571
4246,497,117,127438,121568
4248,496,117,127447,121570
4251,496,117,127462,121568
4253,496,117,127459,121574
4256,496,117,127473,121569
4258,496,117,127472,121575
4261,496,117,127466,121581
4263,496,117,127465,121575
4267,497,117,127477,121576
4269,498,117,127468,121581
4271,498,117,127470,121580
4274,498,118,127476,121579
4276,499,117,127485,121583
4279,499,117,127481,121583
4281,499,117,127486,121574
4284,499,117,127480,121580
4286,499,117,127488,121583
4288,498,117,127497,121588
4291,497,117,127496,121585
4293,495,117,127499,121593
4296,492,117,127502,121591
4298,491,117,127501,121594
4301,492,117,127508,121592
4303,493,117,127507,121601
4306,497,117,127514,121595
4308,510,117,127505,121598
4311,523,117,127518,121600
4314,536,117,127516,121600
4316,556,117,127518,121599
4319,580,117,127514,121605
4321,608,117,127511,121597
4324,614,117,127520,121599
4326,619,117,127513,121609
4328,620,117,127526,121603
4331,615,117,127532,121601
4333,599,117,127534,121604
4336,563,117,127540,121606
4338,541,117,127539,121612
4341,519,117,127534,121608
4343,502,117,127540,121612
4346,483,117,127544,121612
4348,464,117,127545,121612
4350,457,117,127548,121606
4354,452,117,127549,121615
4356,449,117,127549,121604
4359,453,117,127547,121613
4361,460,117,127560,121614
4364,468,117,127556,121610
4366,474,117,127564,121612
4368,480,117,127557,121610
4371,487,117,127554,121617
4373,490,117,127560,121604
4376,491,117,127568,121613
4378,492,117,127562,121617
4381,492,117,127569,121607
4383,493,117,127571,121611
4386,494,117,127562,121611
4388,494,117,127562,121609
4390,494,117,127564,121609
4393,495,117,127559,121614
4396,496,117,127563,121604
4399,496,117,127563,121611
4401,497,117,127570,121608
4404,497,117,127566,121608
4406,498,117,127576,121616
4408,499,117,127578,121613
4411,500,117,127577,121612
4413,500,117,127577,121622
4416,501,117,127579,121610
4418,501,117,127583,121615
4421,501,117,127583,121612
4423,501,116,127585,121617
4426,502,116,127588,121617
4428,503,117,127590,121621
4430,503,116,127597,121618
4433,504,117,127598,121618
4435,505,117,127598,121618
4439,505,116,127602,121619
4441,505,117,127602,121622
4444,505,116,127602,121623
4446,505,116,127602,121621
4448,505,116,127614,121621
4451,505,117,127611,121628
4453,505,116,127611,121619
4456,505,117,127611,121626
4458,505,116,127613,121626
4461,505,116,127623,121628
4463,505,116,127608,121614
4466,505,117,127614,121625
4468,505,116,127627,121620
4470,506,117,127615,121620
4473,507,116,127611,121628
4475,507,116,127611,121624
4478,507,116,127610,121624
4481,507,116,127606,121624
4484,507,116,127608,121625
4486,506,116,127593,121614
4488,507,116,127593,121607
4491,507,116,127567,121603
4493,507,116,127559,121603
4496,506,116,127539,121609
4498,505,116,127539,121603
4501,506,116,127538,121600
4503,506,116,127500,121600
4506,506,116,127489,121599
4508,506,116,127466,121580
4510,505,116,127466,121571
4513,505,116,127435,121572
4515,506,116,127421,121572
4518,506,116,127400,121572
4520,505,116,127400,121556
4524,505,116,127378,121557
4526,506,116,127355,121557
4528,505,116,127353,121542
4531,505,116,127334,121536
4533,505,116,127322,121536
4536,505,116,127322,121523
4538,506,116,127308,121525
4541,506,116,127278,121525
4543,507,116,127278,121515
4546,508,116,127281,121510
4548,509,116,127263,121510
4550,509,116,127258,121512
4553,510,116,127244,121504
4555,511,116,127242,121504
4558,513,116,127242,121490
4560,514,116,127238,121487
4563,514,116,127218,121487
4566,515,116,127218,121473
4568,515,116,127221,121470
4571,515,116,127206,121470
4573,515,116,127213,121472
4576,515,116,127213,121461
4578,515,116,127202,121461
4581,514,116,127202,121458
4583,513,116,127192,121456
4586,513,116,127176,121456
4588,513,116,127176,121442
4590,514,116,127191,121446
4593,514,116,127186,121448
4595,513,116,127186,121445
4598,512,116,127186,121441
4600,511,116,127179,121435
4603,511,116,127180,121435
4605,511,116,127185,121437
4608,510,116,127185,121435
4611,510,116,127177,121435
4613,510,116,127185,121440
4616,510,116,127185,121429
4618,510,116,127183,121434
4621,510,116,127185,121434
4623,510,116,127193,121436
4626,509,116,127193,121443
4628,508,115,127197,121443
4630,508,116,127199,121443
4633,508,116,127211,121448
4635,508,116,127213,121457
4638,508,116,127213,121447
4640,508,116,127217,121456
4643,508,116,127213,121464
4645,508,116,127225,121463
4647,509,116,127225,121463
4651,509,115,127228,121465
4653,510,116,127223,121465
4656,510,116,127235,121467
4658,510,115,127233,121474
4661,510,116,127242,121475
4663,511,116,127240,121482
4666,511,116,127254,121485
4668,511,116,127254,121479
4670,511,116,127264,121479
4673,511,116,127263,121490
4675,512,116,127274,121492
4678,512,116,127271,121486
4680,513,116,127292,121495
4683,513,116,127284,121493
4685,512,116,127287,121505
4687,512,116,127289,121498
4690,512,116,127299,121506
4692,513,116,127300,121507
4696,513,116,127303,121506
4698,513,116,127320,121513
4701,512,115,127333,121511
4703,512,115,127331,121517
4706,512,116,127340,121510
4708,512,116,127334,121512
4710,513,116,127346,121519
4713,512,116,127346,121518
4715,511,116,127357,121520
4718,510,116,127347,121525
4720,509,116,127353,121516
4723,508,116,127360,121523
4725,508,116,127362,121521
4727,508,116,127366,121527
4730,507,116,127376,121521
4732,507,116,127383,121522
4736,507,115,127380,121524
4738,507,116,127381,121524
4741,507,115,127382,121538
4743,507,116,127385,121525
4746,506,115,127391,121536
4748,505,116,127381,121528
4750,505,115,127381,121531
4753,505,115,127385,121535
4755,504,115,127392,121539
4758,505,115,127408,121534
4760,505,116,127414,121544
4763,504,115,127406,121547
4765,504,115,127408,121538
4767,503,115,127417,121541
4770,503,116,127411,121551
4772,503,115,127412,121556
4775,503,115,127426,121553
4777,503,116,127430,121559
4781,504,115,127432,121557
4783,506,115,127433,121553
4786,508,115,127422,121561
4788,509,116,127423,121561
4790,512,115,127433,121563
4793,515,115,127427,121565
4795,515,115,127435,121567
4798,515,115,127438,121568
4800,515,115,127441,121571
4803,516,115,127430,121574
4805,516,115,127428,121563
4807,518,116,127434,121573
4810,520,115,127438,121575
4812,521,115,127439,121578
4815,520,115,127439,121579
4817,518,115,127440,121581
4820,516,115,127451,121575
4823,513,115,127447,121580
4826,511,115,127447,121580
4828,508,115,127452,121583
4830,507,115,127451,121590
4833,506,115,127455,121586
4835,504,115,127452,121574
4838,502,115,127448,121577
4840,500,115,127452,121594
4843,498,115,127461,121588
4845,497,115,127458,121594
4847,496,115,127465,121588
4850,496,115,127461,121592
4852,495,115,127461,121589
4855,496,115,127466,121591
4857,496,115,127462,121593
4860,496,115,127470,121581
4862,495,115,127473,121588
4866,495,115,127469,121595
4868,495,115,127468,121591
4870,495,115,127473,121587
4873,495,115,127474,121582
4875,496,115,127470,121585
4878,495,115,127467,121586
4880,496,115,127485,121594
4883,496,115,127481,121581
4885,497,115,127480,121586
4887,497,115,127489,121585
4890,497,115,127489,121592
4892,497,115,127490,121593
4895,497,115,127495,121585
4897,498,115,127493,121589
4900,497,115,127497,121594
4902,497,115,127494,121592
4905,496,115,127501,121587
4908,494,115,127504,121591
4910,493,115,127507,121599
4913,493,115,127514,121601
4915,496,115,127516,121593
4918,499,115,127516,121608
4920,506,115,127520,121598
4923,515,115,127523,121598
4925,546,115,127534,121609
4927,560,115,127528,121606
4930,592,115,127529,121601
4932,604,115,127529,121612
4935,615,115,127541,121616
4937,619,115,127546,121616
4940,619,115,127546,121620
4942,611,115,127543,121619
4945,598,115,127549,121619
4947,559,115,127562,121632
4950,544,115,127558,121630
4953,511,115,127570,121630
4955,496,115,127570,121633
4958,479,115,127575,121634
4960,464,115,127566,121636
4963,456,115,127566,121632
4965,450,115,127575,121637
4967,447,115,127579,121637
4970,451,115,127586,121634
4972,456,115,127586,121633
4975,465,115,127578,121631
4977,472,115,127580,121631
4980,479,115,127590,121635
4982,485,115,127582,121634
4985,487,115,127584,121646
4987,490,115,127593,121637
4989,491,115,127596,121637
4993,493,114,127598,121638
4995,493,114,127598,121638
4998,494,114,127606,121635
5000,495,114,127599,121635
5003,496,115,127604,121634
5005,497,115,127609,121633
5007,497,115,127609,121633
5010,498,114,127606,121642
5012,499,115,127610,121642
5015,499,114,127610,121644
5017,500,114,127610,121646
5020,500,114,127612,121654
5022,500,114,127618,121654
5025,500,114,127634,121652
5027,500,114,127629,121646
5029,500,114,127629,121654
5032,500,115,127627,121651
5035,501,114,127627,121651
5038,501,114,127636,121652
5040,501,114,127636,121658
5043,502,114,127636,121656
5045,502,114,127646,121656
5047,503,114,127650,121665
5050,504,114,127653,121661
5052,504,114,127655,121661
5055,503,114,127655,121658
5057,503,114,127647,121666
5060,504,114,127660,121666
5062,504,114,127660,121657
5065,505,114,127662,121658
5067,505,114,127660,121658
5069,505,114,127666,121666
5072,506,114,127667,121669
5074,506,114,127672,121669
5078,507,114,127672,121668
5080,507,114,127678,121668
5083,507,114,127678,121668
5085,507,114,127678,121673
5087,506,114,127672,121671
5090,507,114,127682,121671
5092,506,114,127679,121671
5095,507,114,127679,121677
5097,507,114,127663,121677
5100,508,114,127663,121666
5102,509,114,127653,121664
5105,509,114,127637,121664
5107,508,114,127637,121657
5109,506,114,127635,121661
5112,506,114,127593,121658
5114,505,114,127593,121641
5117,505,114,127587,121640
5120,504,114,127561,121634
5123,505,114,127546,121634
5125,504,114,127522,121629
5127,504,114,127522,121617
5130,504,114,127478,121617
5132,503,114,127468,121610
5135,502,114,127468,121593
5137,502,114,127451,121587
5140,502,114,127419,121587
5142,503,114,127406,121580
5145,503,114,127406,121568
5147,504,114,127395,121563
5149,504,114,127367,121563
5152,504,114,127352,121562
5154,505,114,127341,121560
5157,506,114,127341,121548
5159,506,114,127341,121548
5163,507,114,127313,121542
5165,508,114,127318,121542
5167,509,114,127318,121528
5170,510,114,127308,121524
5172,511,114,127301,121524
5175,511,114,127292,121525
5177,511,114,127288,121521
5180,512,114,127290,121516
5182,513,114,127278,121513
5185,513,114,127281,121500
5187,513,114,127281,121498
5189,514,114,127272,121498
5192,514,114,127262,121492
5194,514,114,127265,121501
5197,514,114,127267,121507
5199,513,114,127274,121496
5202,512,114,127260,121496
5204,512,114,127262,121493
5207,512,114,127256,121492
5210,512,114,127262,121490
5212,511,114,127248,121494
5215,510,114,127258,121496
5217,510,114,127261,121494
5220,509,114,127266,121498
5222,508,114,127281,121493
5225,508,114,127272,121500
5227,508,114,127273,121497
5229,508,114,127275,121498
5232,508,114,127275,121495
5234,508,114,127277,121501
5237,508,114,127276,121506
5239,508,114,127275,121498
5242,508,114,127279,121501
5244,509,114,127284,121503
5246,509,114,127288,121510
5250,509,114,127288,121507
5252,509,114,127301,121507
5255,509,114,127293,121506
5257,509,114,127301,121512
5260,509,114,127299,121504
5262,510,114,127304,121506
5265,510,114,127302,121510
5267,512,114,127298,121513
5269,513,114,127301,121514
5272,513,114,127309,121515
5274,513,114,127309,121514
5277,514,114,127314,121513
5279,514,114,127323,121515
5282,513,114,127318,121511
5284,513,114,127314,121514
5286,513,114,127321,121512
5289,512,114,127316,121514
5292,512,114,127325,121519
5295,511,114,127331,121520
5297,511,114,127334,121516
5300,511,114,127345,121514
5302,512,114,127354,121521
5305,512,114,127352,121524
5307,513,114,127351,121524
5309,513,114,127360,121525
5312,512,114,127357,121530
5314,511,114,127361,121526
5317,511,114,127375,121537
5319,510,114,127384,121532
5322,509,114,127387,121539
5324,509,114,127399,121538
5326,508,114,127393,121548
5329,508,114,127398,121544
5331,508,114,127406,121554
5335,508,114,127402,121550
5337,508,114,127409,121553
5340,508,114,127425,121556
5342,508,114,127426,121558
5345,508,114,127427,121555
5347,509,114,127426,121563
5349,510,114,127430,121565
5352,511,114,127436,121560
5354,513,114,127431,121554
5357,515,114,127433,121560
5359,516,114,127445,121559
5362,517,114,127437,121566
5364,518,114,127446,121571
5366,518,114,127446,121562
5369,518,114,127446,121569
5371,518,114,127446,121573
5374,520,114,127449,121577
5377,521,114,127452,121574
5380,522,114,127453,121579
5382,523,114,127457,121576
5385,522,114,127453,121585
5387,519,114,127448,121573
5389,517,114,127453,121570
5392,515,114,127458,121578
5394,511,114,127458,121584
5397,509,114,127456,121586
5399,507,114,127455,121580
5402,507,114,127457,121577
5404,505,114,127461,121583
5406,503,114,127466,121587
5409,501,114,127471,121587
5411,498,114,127469,121580
5414,496,114,127475,121592
5416,495,114,127477,121587
5420,494,114,127484,121597
5422,494,114,127477,121595
5425,495,114,127481,121595
5427,494,114,127488,121606
5429,495,114,127481,121602
5432,495,114,127503,121607
5434,495,114,127498,121603
5437,495,115,127498,121607
5439,494,114,127496,121607
5442,494,115,127505,121607
5444,494,115,127508,121616
5446,495,115,127513,121599
5449,495,114,127504,121612
5451,495,115,127504,121602
5454,496,115,127505,121616
5456,496,115,127517,121614
5459,496,115,127517,121616
5462,497,115,127521,121618
5465,497,115,127524,121618
5467,496,115,127533,121627
5469,495,115,127527,121622
5472,494,115,127524,121622
5474,492,115,127524,121611
5477,492,115,127526,121615
5479,492,115,127528,121616
5482,493,115,127528,121613
5484,495,115,127532,121614
5486,498,115,127540,121614
5489,513,115,127546,121622
5491,524,115,127546,121622
5494,544,115,127544,121627
5496,561,115,127549,121627
5499,583,115,127555,121626
5501,609,115,127552,121628
5505,616,115,127555,121633
5507,623,115,127564,121631
5509,624,115,127563,121631
5512,610,115,127563,121635
5514,594,115,127563,121641
5517,569,115,127571,121632
5519,549,115,127571,121632
5522,526,115,127585,121640
5524,489,115,127587,121645
5526,476,115,127587,121651
5529,464,115,127591,121643
5531,457,115,127593,121643
5534,450,115,127595,121648
5536,444,115,127595,121645
5539,446,115,127600,121656
5541,450,115,127604,121656
5544,457,115,127608,121655
5547,473,115,127602,121651
5549,478,115,127602,121658
5552,484,115,127613,121655
5554,487,115,127614,121655
5557,489,115,127617,121661
5559,492,115,127617,121660
5562,493,115,127622,121655
5564,494,115,127608,121655
5566,494,115,127626,121648
5569,495,115,127624,121652
5571,495,115,127618,121652
5574,495,115,127619,121654
5576,497,115,127619,121655
5579,497,115,127622,121655
5581,498,115,127622,121650
5584,499,115,127622,121651
5586,499,115,127624,121651
5588,500,115,127638,121649
5592,500,115,127628,121656
5594,500,115,127630,121656
5597,501,115,127630,121654
5599,502,115,127633,121658
5602,502,115,127635,121658
5604,503,115,127635,121663
5606,504,115,127642,121663
5609,504,115,127644,121663
5611,504,115,127662,121670
5614,504,115,127662,121679
5616,504,115,127661,121679
5619,504,115,127661,121667
5621,504,115,127658,121668
5624,504,115,127658,121668
5626,504,115,127658,121681
5628,505,115,127668,121680
5632,506,115,127666,121689
5634,507,115,127666,121680
5637,508,115,127672,121684
5639,508,115,127670,121684
5642,508,115,127667,121684
5644,508,115,127682,121690
5646,508,115,127682,121688
5649,508,115,127673,121688
5651,508,115,127674,121690
5654,508,115,127674,121696
5656,508,115,127681,121689
5659,508,115,127675,121689
5661,508,115,127666,121692
5664,508,115,127666,121696
5666,508,115,127669,121689
5668,508,115,127661,121689
5671,507,115,127651,121683
5673,507,115,127635,121684
5677,506,115,127635,121678
5679,505,115,127633,121682
5682,505,115,127607,121682
5684,504,115,127589,121672
5686,505,115,127589,121662
5689,503,115,127581,121658
5691,503,115,127564,121658
5694,502,115,127558,121657
5696,502,115,127538,121649
5699,502,115,127519,121642
5701,502,115,127509,121646
5704,502,115,127482,121645
5706,502,115,127470,121635
5708,503,115,127470,121628
5711,504,115,127454,121618
5713,505,115,127439,121618
5716,505,115,127425,121611
5719,505,115,127409,121604
5722,505,115,127397,121601
5724,506,115,127385,121593
5726,507,115,127375,121591
5729,508,115,127370,121586
5731,510,115,127353,121575
5734,511,115,127346,121581
5736,512,115,127338,121569
5739,513,115,127336,121570
5741,514,115,127336,121560
5744,514,115,127324,121557
5746,514,115,127311,121550
5748,514,115,127304,121542
5751,514,114,127306,121540
5753,515,115,127294,121538
5756,516,115,127289,121539
5758,517,115,127285,121531
5762,517,115,127283,121534
5764,517,115,127286,121524
5766,516,115,127287,121532
5769,516,115,127296,121527
5771,516,115,127293,121519
5774,516,115,127287,121524
5776,515,115,127292,121523
5779,515,115,127287,121521
5781,514,115,127283,121524
5784,514,115,127294,121521
5786,514,115,127277,121518
5788,514,115,127274,121517
5791,513,115,127284,121515
5793,513,115,127285,121510
5796,513,115,127289,121509
5798,513,115,127294,121513
5801,512,115,127287,121513
5804,512,115,127288,121505
5806,512,115,127302,121505
5809,513,115,127282,121503
5811,513,115,127273,121512
5814,513,115,127285,121513
5816,513,115,127296,121506
5819,513,115,127300,121508
5821,513,115,127298,121505
5824,513,115,127290,121503
5826,513,115,127287,121502
5828,513,115,127299,121507
5831,514,114,127290,121511
5833,514,115,127293,121513
5836,514,115,127300,121513
5838,515,115,127311,121510
5841,515,115,127304,121509
5843,516,115,127317,121512
5846,516,115,127309,121517
5849,516,115,127312,121512
5851,516,115,127315,121517
5854,516,115,127323,121519
5856,515,115,127320,121517
5859,515,115,127334,121514
5861,515,115,127331,121517
5864,515,115,127332,121515
5866,515,115,127331,121527
5868,515,115,127331,121524
5871,515,115,127342,121524
5873,514,115,127342,121514
5876,514,115,127348,121528
5878,513,115,127356,121530
5881,513,115,127357,121519
5883,513,115,127356,121528
5885,514,115,127355,121527
5889,515,115,127360,121533
5891,517,114,127361,121528
5894,519,115,127360,121532
5896,520,115,127366,121532
5899,522,115,127378,121531
5901,522,115,127373,121537
5904,523,114,127374,121512
5906,522,115,127378,121537
5908,522,115,127397,121538
5911,522,115,127394,121543
5913,523,115,127392,121545
5916,524,115,127391,121543
5918,526,115,127392,121541
5921,527,115,127391,121535
5923,526,115,127396,121540
5925,525,115,127404,121540
5928,523,115,127394,121537
5931,519,115,127400,121535
5934,515,115,127392,121540
5936,513,115,127399,121542
5939,512,115,127406,121537
5941,511,115,127399,121543
5944,510,115,127404,121541
5946,506,115,127403,121545
5948,504,115,127400,121548
5951,502,115,127404,121543
5953,500,115,127402,121541
5956,499,115,127389,121537
5958,499,115,127404,121542
5961,498,115,127404,121541
5963,497,115,127397,121538
5965,497,115,127402,121538
5968,496,115,127405,121538
5970,495,115,127412,121540
5974,495,115,127408,121544
5976,495,115,127406,121541
5979,495,115,127410,121534
5981,496,115,127404,121535
5984,496,114,127404,121542
5986,496,115,127401,121540
5988,496,115,127409,121540
5991,496,115,127415,121547
5993,496,115,127412,121542
5996,496,115,127412,121532
5998,497,115,127413,121540
6001,497,115,127419,121540
6003,498,115,127417,121542
6005,497,115,127417,121555
6008,497,114,127419,121548
6010,496,115,127421,121548
6013,495,115,127433,121551
6016,492,115,127427,121544
6019,492,115,127427,121539
6021,492,115,127432,121545
6024,494,115,127434,121545
6026,500,115,127434,121542
6028,505,115,127434,121540
6031,518,115,127434,121543
6033,532,115,127436,121543
6036,548,114,127449,121542
6038,587,115,127447,121539
6041,600,115,127444,121550
6043,621,115,127444,121543
6045,626,115,127449,121544
6048,629,115,127449,121551
6050,628,115,127441,121551
6053,602,115,127453,121542
6055,583,115,127453,121544
6059,556,115,127459,121540
6061,536,115,127456,121540
6064,512,115,127469,121542
6066,480,115,127469,121544
6068,466,115,127463,121540
6071,454,115,127461,121548
6073,448,114,127461,121541
6076,445,114,127460,121547
6078,445,115,127470,121547
6081,448,115,127473,121546
6083,460,114,127473,121549
6085,469,114,127469,121548
6088,476,114,127471,121544
6090,479,114,127472,121544
6093,485,114,127472,121544
6095,486,114,127466,121544
6098,487,114,127476,121553
6100,489,114,127476,121546
6104,490,114,127476,121545
6106,491,114,127475,121545
6108,491,114,127476,121547
6111,492,114,127474,121554
6113,493,114,127476,121554
6116,494,114,127476,121545
6118,495,114,127477,121551
6121,496,114,127484,121551
6123,497,114,127484,121540
6125,497,114,127491,121543
6128,497,114,127489,121543
6130,497,114,127500,121551
6133,498,114,127500,121554
6135,499,114,127503,121564
6138,500,114,127510,121564
6140,501,114,127518,121559
6144,502,114,127518,121569
6146,502,114,127523,121569
6148,502,114,127531,121570
6151,502,114,127531,121580
6153,502,114,127538,121581
6156,502,114,127542,121581
6158,502,114,127544,121581
6161,502,114,127544,121584
6163,504,114,127544,121586
6165,505,114,127546,121586
6168,506,114,127557,121581
6170,506,114,127567,121592
6173,507,114,127567,121592
6175,507,114,127567,121590
6178,507,114,127565,121590
6180,507,114,127570,121597
6183,507,114,127570,121597
6185,507,114,127572,121597
6188,506,114,127572,121593
6191,506,114,127576,121593
6193,507,114,127568,121592
6196,508,114,127569,121593
6198,508,114,127568,121600
6201,508,114,127569,121600
6203,508,114,127572,121601
6205,507,114,127564,121601
6208,507,114,127567,121596
6210,506,114,127555,121593
6213,506,114,127536,121599
6215,506,114,127536,121583
6218,505,114,127522,121592
6220,504,114,127510,121584
6223,503,114,127498,121584
6225,502,114,127488,121581
6227,502,114,127477,121572
6231,502,114,127461,121572
6233,502,114,127434,121567
6236,502,114,127410,121556
6238,502,114,127396,121557
6241,501,114,127396,121542
6243,501,114,127387,121542
6245,501,114,127359,121535
6248,501,114,127341,121523
6250,501,114,127330,121511
6253,501,113,127313,121502
6255,502,113,127308,121507
6258,503,114,127286,121497
6260,503,113,127282,121495
6263,504,113,127270,121487
6265,505,114,127263,121484
6267,507,114,127245,121477
6270,508,113,127240,121473
6273,509,113,127240,121474
6276,509,113,127240,121472
6278,511,113,127240,121471
6281,512,113,127224,121468
6283,513,113,127215,121456
6285,514,113,127211,121459
6288,515,113,127207,121449
6290,516,113,127209,121455
6293,517,113,127194,121454
6295,518,114,127201,121451
6298,518,113,127191,121447
6300,519,113,127204,121440
6303,519,113,127208,121444
6305,519,113,127206,121445
6307,518,113,127204,121444
6310,518,113,127196,121442
6312,518,113,127203,121439
6316,517,113,127204,121441
6318,516,113,127208,121433
6321,515,113,127203,121441
6323,515,113,127205,121446
6325,515,113,127204,121444
6328,515,113,127205,121440
6330,515,113,127213,121438
6333,515,113,127212,121440
6335,514,113,127227,121440
6338,513,113,127220,121455
6340,513,113,127227,121457
6343,513,113,127232,121460
6345,513,113,127224,121459
6347,513,113,127226,121455
6350,513,113,127237,121453
6352,513,113,127249,121459
6355,514,113,127242,121460
6358,514,113,127238,121461
6361,514,113,127251,121464
6363,515,113,127257,121467
6365,515,113,127258,121471
6368,515,113,127255,121471
6370,515,113,127253,121477
6373,516,113,127260,121473
6375,516,113,127261,121481
6378,516,113,127266,121476
6380,516,113,127271,121479
6383,516,113,127271,121479
6385,516,113,127268,121476
6387,516,113,127270,121478
6390,516,113,127270,121469
6392,517,113,127283,121476
6395,516,113,127274,121472
6397,516,112,127284,121480
6401,515,113,127294,121475
6403,515,113,127280,121477
6405,515,112,127295,121478
6408,514,113,127286,121485
6410,515,113,127298,121486
6413,514,112,127300,121475
6415,514,112,127297,121484
6418,514,112,127298,121473
6420,514,112,127298,121484
6423,513,113,127306,121481
6425,513,112,127310,121480
6427,512,112,127317,121482
6430,512,112,127307,121477
6432,512,113,127309,121480
6435,513,112,127308,121473
6437,515,112,127309,121485
6440,516,112,127300,121469
6443,520,112,127298,121463
6445,521,112,127311,121471
6448,522,112,127307,121470
6450,522,112,127308,121469
6453,521,112,127305,121455
6455,521,112,127306,121466
6458,521,112,127311,121466
6460,521,112,127306,121466
6463,521,112,127307,121466
6465,523,112,127306,121464
6467,524,112,127306,121458
6470,525,112,127309,121465
6472,524,112,127300,121459
6475,520,112,127305,121462
6477,517,112,127303,121461
6480,514,112,127303,121460
6482,511,112,127298,121457
6484,511,112,127309,121457
6488,509,112,127318,121462
6490,507,112,127313,121464
6493,504,112,127315,121462
6495,502,112,127312,121475
6498,501,112,127316,121469
6500,499,112,127321,121467
6503,498,112,127321,121483
6505,498,111,127327,121484
6507,498,112,127326,121484
6510,496,111,127341,121492
6512,495,112,127338,121493
6515,494,112,127338,121489
6517,493,111,127348,121488
6520,493,112,127354,121488
6522,493,111,127351,121499
6524,493,111,127351,121497
6528,494,111,127355,121497
6530,495,111,127355,121497
6533,495,111,127362,121508
6535,495,111,127367,121507
6538,495,111,127367,121505
6540,495,111,127382,121502
6543,496,111,127383,121502
6545,497,111,127377,121503
6547,497,111,127377,121504
6550,497,111,127381,121505
6552,497,111,127377,121505
6555,497,111,127391,121504
6557,496,111,127396,121508
6560,495,111,127394,121508
6562,493,111,127394,121512
6564,492,111,127394,121511
6567,493,111,127402,121510
6569,495,111,127404,121510
6573,503,111,127412,121508
6575,511,111,127412,121517
6578,526,111,127417,121516
6580,542,111,127416,121516
6583,564,111,127428,121521
6585,601,111,127428,121516
6587,618,111,127437,121516
6590,627,111,127435,121519
6592,629,111,127435,121527
6595,629,111,127444,121521
6597,623,111,127448,121521
6600,610,111,127455,121529
6602,572,111,127455,121523
6604,543,111,127451,121526
6607,516,111,127465,121528
6609,501,111,127470,121528
6612,472,111,127470,121530
6615,464,111,127469,121530
6618,454,111,127478,121536
6620,444,111,127478,121535
6623,444,111,127482,121530
6625,447,111,127489,121530
6627,454,111,127490,121537
6630,468,111,127489,121532
6632,473,111,127500,121532
6635,481,111,127500,121540
6637,484,111,127496,121543
6640,486,111,127503,121543
6642,487,111,127503,121548
6644,488,111,127515,121554
6647,489,111,127508,121554
6649,490,111,127519,121556
6652,490,111,127518,121567
6654,490,111,127519,121567
6658,491,111,127519,121579
6660,493,111,127516,121581
6663,494,111,127522,121581
6665,495,111,127522,121593
6667,497,111,127530,121595
6670,497,111,127525,121595
6672,497,111,127535,121591
6675,498,111,127535,121600
6677,498,111,127544,121598
6680,498,111,127537,121598
6682,498,111,127535,121599
6684,499,111,127535,121617
6687,499,111,127542,121617
6689,499,111,127537,121618
6692,500,111,127537,121620
6694,501,111,127548,121623
6697,502,111,127551,121623
6700,502,111,127543,121626
6703,501,111,127543,121629
6705,501,110,127552,121629
6707,501,111,127554,121629
6710,501,111,127564,121631
6712,502,110,127554,121641
6715,504,110,127554,121635
6717,505,110,127569,121636
6720,505,111,127572,121636
6722,505,110,127568,121636
6724,505,110,127568,121638
6727,504,110,127578,121635
6729,504,110,127576,121635
6732,503,110,127579,121647
6734,503,110,127579,121649
6737,504,110,127588,121643
6739,506,110,127594,121641
6743,507,110,127579,121640
6745,507,110,127579,121639
6747,507,110,127574,121639
6750,506,110,127564,121649
6752,506,110,127562,121647
6755,506,110,127561,121641
6757,506,110,127570,121639
6760,506,110,127547,121645
6762,505,110,127528,121636
6764,505,110,127513,121627
6767,504,110,127504,121619
6769,505,110,127483,121625
6772,505,110,127462,121615
6774,505,110,127462,121601
6777,504,110,127438,121601
6779,503,110,127424,121606
6782,503,110,127417,121603
6785,502,110,127397,121599
6787,502,110,127382,121593
6790,503,110,127376,121587
6792,505,110,127358,121576
6795,505,110,127345,121577
6797,506,110,127341,121569
6800,506,110,127331,121572
6802,507,110,127323,121561
6804,507,110,127310,121563
6807,507,110,127305,121554
6809,508,110,127301,121550
6812,509,110,127283,121548
6814,510,110,127284,121547
6817,512,110,127275,121541
6819,513,110,127271,121541
6822,513,110,127262,121535
6824,514,110,127254,121528
6827,515,110,127256,121528
6830,516,110,127251,121524
6832,518,110,127256,121526
6835,518,110,127256,121525
6837,519,110,127253,121518
6840,519,110,127251,121517
6842,518,110,127246,121515
6844,517,110,127239,121520
6847,517,110,127250,121507
6849,518,110,127246,121508
6852,519,110,127248,121514
6854,520,110,127257,121501
6857,520,110,127251,121510
6859,520,110,127252,121503
6862,520,110,127254,121503
6864,520,110,127246,121509
6866,519,110,127261,121505
6870,519,110,127253,121496
6872,518,110,127260,121500
6875,517,110,127252,121499
6877,517,110,127249,121498
6880,516,110,127264,121491
6882,514,110,127266,121491
6884,513,110,127257,121495
6887,513,110,127261,121488
6889,513,110,127262,121488
6892,513,110,127256,121497
6894,514,110,127255,121493
6897,514,110,127262,121486
6899,515,110,127266,121491
6902,514,110,127261,121490
6904,514,110,127253,121490
6906,514,110,127263,121497
6909,514,110,127266,121484
6912,514,110,127271,121491
6915,514,110,127261,121489
6917,514,110,127273,121488
6920,514,110,127272,121484
6922,515,110,127276,121481
6924,515,110,127271,121486
6927,515,110,127272,121490
6929,515,109,127271,121496
6932,514,109,127279,121486
6934,515,109,127278,121492
6937,515,109,127287,121490
6939,515,109,127283,121497
6942,515,109,127299,121494
6944,515,109,127295,121500
6946,515,109,127299,121501
6949,516,109,127305,121507
6951,515,109,127311,121508
6955,515,109,127314,121514
6957,515,109,127314,121513
6960,514,109,127327,121518
6962,514,109,127333,121524
6964,514,109,127331,121531
6967,514,109,127348,121535
6969,514,109,127349,121532
6972,514,109,127362,121540
6974,514,109,127360,121541
6977,513,109,127361,121549
6979,512,109,127372,121548
6982,512,109,127374,121551
6984,512,109,127385,121548
6986,514,109,127379,121551
6989,516,109,127388,121555
6991,519,109,127392,121555
6994,520,109,127392,121554
6996,521,109,127390,121553
7000,522,109,127392,121553
7002,521,109,127405,121565
7004,521,109,127403,121552
7007,521,109,127409,121557
7009,522,109,127414,121560
7012,523,109,127419,121557
7014,525,109,127414,121557
7017,525,109,127414,121556
7019,525,109,127423,121552
7022,525,109,127416,121552
7024,519,109,127425,121564
7026,517,109,127420,121557
7029,513,109,127417,121562
7031,512,109,127417,121560
7034,511,109,127430,121557
7036,510,109,127426,121560
7040,508,109,127426,121567
7042,505,109,127432,121561
7044,503,109,127444,121561
7047,498,109,127447,121571
7049,497,109,127443,121567
7052,496,109,127447,121567
7054,496,109,127447,121569
7057,495,109,127447,121563
7059,495,109,127449,121564
7062,495,109,127449,121563
7064,495,109,127447,121571
7066,496,109,127449,121571
7069,496,109,127452,121571
7071,496,109,127452,121568
7074,496,108,127450,121569
7076,496,109,127452,121569
7079,496,108,127452,121572
7081,497,109,127451,121572
7084,497,109,127452,121572
7087,497,108,127458,121568
7089,497,109,127458,121574
7092,497,109,127462,121570
7094,497,109,127457,121570
7097,497,108,127463,121564
7099,497,108,127463,121560
7102,497,108,127460,121570
7104,496,108,127460,121566
7106,494,108,127460,121571
7109,492,108,127462,121565
7111,491,109,127467,121565
7114,490,108,127471,121565
7116,492,108,127471,121566
7119,495,108,127479,121566
7121,499,108,127476,121566
7123,505,108,127492,121566
7127,529,108,127494,121561
7129,541,108,127478,121561
7132,563,108,127486,121553
7134,600,108,127486,121554
7137,616,108,127491,121551
7139,623,108,127491,121551
7142,627,109,127484,121560
7144,626,108,127484,121550
7146,612,109,127485,121551
7149,594,108,127482,121551
7151,570,108,127496,121552
7154,549,108,127500,121554
7156,505,108,127500,121551
7159,485,108,127500,121548
7161,473,108,127498,121548
7163,462,108,127502,121548
7166,446,108,127502,121540
7169,444,108,127502,121541
7172,445,108,127486,121541
7174,448,108,127491,121538
7177,461,108,127491,121540
7179,466,108,127490,121540
7182,473,108,127486,121538
7184,480,108,127486,121533
7186,483,108,127492,121534
7189,485,108,127489,121534
7191,486,108,127489,121528
7194,487,108,127489,121532
7196,487,108,127494,121533
7199,488,108,127495,121533
7201,489,108,127500,121537
7203,490,108,127495,121534
7206,493,108,127495,121539
7208,493,108,127498,121546
7212,494,108,127497,121546
7214,494,108,127514,121539
7217,496,108,127514,121547
7219,496,108,127514,121550
7222,496,108,127513,121550
7224,497,108,127516,121548
7226,497,108,127523,121557
7229,499,108,127523,121552
7231,500,107,127527,121558
7234,502,108,127517,121558
7236,502,108,127520,121558
7239,503,108,127520,121558
7241,504,108,127527,121566
7243,505,108,127532,121566
7246,504,108,127528,121562
7248,504,107,127536,121577
7251,504,108,127542,121568
7254,502,107,127550,121578
7257,502,108,127557,121577
7259,502,107,127560,121590
7262,502,108,127560,121591
7264,502,107,127569,121582
7266,503,108,127566,121582
7269,502,107,127572,121596
7271,503,107,127576,121588
7274,503,108,127578,121590
7276,504,107,127584,121589
7279,505,107,127586,121589
7281,504,107,127585,121597
7283,505,107,127585,121598
7286,504,107,127593,121598
7288,504,107,127586,121591
7291,505,107,127602,121602
7293,505,107,127599,121596
7297,505,107,127598,121584
7299,505,107,127579,121593
7302,506,107,127570,121599
7304,506,107,127569,121591
7306,505,108,127550,121582
7309,505,107,127539,121580
7311,505,107,127519,121570
7314,505,107,127524,121570
7316,504,108,127508,121561
7319,504,107,127488,121556
7321,504,107,127467,121548
7323,503,107,127443,121534
7326,503,107,127426,121534
7328,503,107,127417,121527
7331,503,107,127392,121523
7333,503,107,127374,121512
7336,502,107,127353,121509
7339,502,108,127353,121500
7342,502,107,127339,121491
7344,502,107,127320,121481
7346,502,108,127303,121477
7349,503,107,127293,121468
7351,503,107,127277,121457
7354,504,107,127267,121450
7356,506,107,127245,121445
7359,506,107,127243,121445
7361,507,108,127235,121432
7363,508,108,127228,121436
7366,509,107,127225,121431
7368,510,107,127223,121421
7371,511,108,127215,121423
7373,513,107,127214,121422
7376,514,107,127196,121415
7378,516,108,127198,121412
7382,516,108,127193,121412
7384,517,108,127204,121405
7386,517,108,127204,121401
7389,518,108,127202,121402
7391,518,108,127199,121398
7394,518,107,127196,121405
7396,518,108,127204,121394
7399,518,108,127188,121405
7401,518,107,127177,121397
7403,518,107,127190,121403
7406,517,107,127187,121397
7408,516,108,127191,121405
7411,516,107,127185,121397
7413,516,108,127195,121405
7416,516,107,127200,121403
7418,515,108,127199,121409
7421,514,107,127203,121410
7424,514,108,127203,121416
7426,513,107,127210,121416
7429,512,107,127204,121415
7431,511,108,127210,121419
7434,512,108,127213,121422
7436,512,107,127215,121418
7439,512,107,127218,121422
7441,513,107,127227,121427
7443,514,107,127226,121424
7446,515,107,127231,121429
7448,515,107,127236,121441
7451,515,107,127242,121441
7453,515,107,127242,121440
7456,515,107,127242,121442
7458,515,107,127246,121446
7461,516,108,127256,121441
7463,515,107,127262,121450
7465,515,107,127255,121443
7469,515,107,127261,121456
7471,515,107,127271,121456
7474,515,107,127273,121460
7476,514,107,127276,121457
7479,514,108,127276,121462
7481,514,107,127289,121460
7483,514,107,127284,121467
7486,514,107,127282,121463
7488,514,107,127302,121460
7491,514,107,127301,121465
7493,514,107,127298,121460
7496,513,107,127303,121469
7498,512,107,127316,121473
7501,511,107,127320,121474
7503,511,107,127323,121467
7505,511,107,127331,121477
7508,512,107,127336,121477
7511,512,107,127340,121472
7514,512,107,127340,121483
7516,512,107,127347,121483
7519,512,107,127348,121483
7521,512,107,127362,121491
7523,512,107,127355,121488
7526,513,107,127361,121487
7528,514,107,127369,121495
7531,516,107,127374,121495
7533,519,107,127373,121496
7536,520,107,127373,121503
7538,521,107,127378,121502
7541,522,107,127376,121502
7543,521,107,127391,121505
7545,521,107,127398,121510
7548,521,107,127393,121515
7550,522,107,127402,121507
7554,522,107,127413,121509
7556,523,107,127407,121512
7559,523,107,127407,121521
7561,523,107,127412,121519
7563,522,107,127424,121519
7566,517,107,127432,121524
7568,515,107,127426,121536
7571,511,107,127429,121526
7573,509,107,127429,121528
7576,508,107,127442,121531
7578,506,107,127437,121532
7581,504,107,127437,121529
7583,502,107,127442,121534
7585,501,107,127448,121534
7588,499,107,127451,121537
7590,497,107,127451,121535
7593,496,107,127449,121543
7596,496,107,127449,121543
7599,496,107,127456,121544
7601,496,107,127459,121550
7603,496,107,127458,121550
7606,495,107,127457,121540
7608,494,107,127457,121547
7611,494,107,127467,121536
7613,494,107,127471,121536
7616,494,107,127468,121549
7618,494,107,127468,121551
7621,495,107,127465,121550
7623,495,107,127474,121548
7625,495,107,127474,121554
7628,496,107,127478,121552
7630,496,107,127474,121552
7633,496,107,127487,121553
7635,496,107,127487,121557
7639,495,107,127486,121567
7641,496,107,127487,121567
7643,495,107,127495,121562
7646,494,107,127499,121566
7648,493,107,127498,121566
7651,491,107,127508,121565
7653,489,107,127508,121573
7656,489,107,127513,121566
7658,490,107,127505,121566
7661,491,107,127516,121573
7663,500,107,127516,121576
7665,512,107,127521,121576
7668,524,107,127523,121576
7670,542,107,127538,121578
7673,560,107,127534,121589
7675,601,107,127534,121589
7678,618,107,127543,121586
7681,625,107,127545,121586
7683,629,107,127545,121589
7686,628,107,127545,121586
7688,615,107,127545,121594
7691,598,107,127551,121594
7693,578,107,127556,121587
7696,534,107,127556,121596
7698,517,107,127567,121596
7701,497,107,127559,121608
7703,469,106,127559,121603
7705,457,107,127569,121600
7708,450,107,127573,121600
7710,445,107,127572,121607
7713,446,107,127572,121603
7715,453,107,127576,121614
7718,460,107,127577,121614
7720,467,107,127585,121611
7723,472,106,127583,121618
7726,479,106,127583,121616
7728,483,106,127589,121619
7731,485,106,127597,121619
7733,486,106,127604,121619
7736,489,106,127604,121619
7738,489,106,127603,121620
7741,490,106,127592,121620
7743,491,106,127616,121620
7745,491,106,127607,121623
7748,493,106,127607,121618
7750,493,106,127616,121623
7753,494,106,127612,121623
7755,494,106,127612,121619
7758,495,106,127612,121619
7760,496,106,127616,121620
7762,496,106,127611,121620
7766,496,106,127617,121616
7768,496,106,127618,121619
7771,496,106,127618,121624
7773,498,106,127626,121620
7776,499,106,127628,121615
7778,499,106,127622,121630
7781,500,106,127622,121628
7783,501,106,127631,121622
7785,501,106,127627,121622
7788,502,106,127635,121626
7790,503,106,127632,121623
7793,503,106,127632,121629
7795,503,106,127643,121628
7798,504,106,127642,121631
7800,504,106,127654,121638
7802,504,106,127654,121645
7805,503,106,127656,121645
7808,503,106,127656,121644
7811,503,106,127666,121644
7813,504,106,127672,121637
7816,504,105,127668,121647
7818,504,105,127666,121637
7821,504,105,127665,121643
7823,505,105,127658,121640
7825,506,106,127658,121653
7828,506,105,127656,121638
7830,506,106,127664,121639
7833,505,105,127670,121637
7835,505,105,127663,121640
7838,504,105,127651,121641
7840,504,105,127638,121633
7842,504,105,127629,121633
7845,504,105,127626,121624
7847,504,105,127603,121619
7851,504,105,127589,121621
7853,504,105,127581,121610
7856,504,105,127560,121613
7858,503,105,127545,121605
7861,503,105,127546,121603
7863,502,105,127525,121592
7865,502,105,127507,121591
7868,502,105,127478,121580
7870,502,105,127467,121585
7873,502,105,127451,121562
7875,502,105,127422,121561
7878,502,105,127407,121551
7880,502,105,127388,121546
7882,502,105,127369,121542
7885,502,105,127355,121527
7887,502,105,127343,121525
7890,502,105,127335,121521
7892,504,105,127328,121514
7896,505,105,127311,121516
7898,506,105,127304,121507
7901,507,105,127300,121509
7903,509,105,127280,121505
7905,509,105,127271,121504
7908,509,105,127271,121491
7910,510,105,127269,121491
7913,512,105,127256,121488
7915,513,105,127250,121490
7918,514,105,127264,121484
7920,516,105,127264,121487
7922,517,105,127253,121490
7925,517,104,127254,121486
7927,518,104,127249,121484
7930,518,104,127244,121485
7932,518,104,127245,121490
7936,519,104,127252,121481
7938,518,104,127256,121476
7941,518,104,127246,121477
7943,517,104,127246,121468
7945,517,104,127240,121474
7948,517,104,127234,121462
7950,517,104,127239,121467
7953,517,104,127237,121465
7955,518,104,127237,121464
7958,517,104,127235,121456
7960,516,104,127237,121458
7962,516,104,127226,121446
7965,516,104,127227,121452
7967,516,104,127226,121451
7970,515,104,127224,121451
7972,514,104,127227,121439
7975,513,104,127235,121444
7977,514,104,127218,121433
7981,515,104,127231,121437
7983,515,104,127228,121430
7985,515,104,127232,121435
7988,515,104,127230,121441
7990,516,104,127238,121435
7993,516,104,127236,121439
7995,517,104,127232,121439
7998,517,104,127240,121441
8000,518,104,127234,121437
8002,518,104,127252,121439
8005,517,103,127247,121437
8007,517,104,127245,121446
8010,516,103,127243,121444
8012,516,103,127250,121439
8015,516,103,127252,121448
8017,516,103,127253,121437
8020,516,103,127251,121442
8023,515,103,127263,121449
8025,514,103,127267,121449
8028,513,103,127269,121452
8030,512,103,127273,121453
8033,512,103,127276,121463
8035,512,103,127275,121446
8038,512,103,127275,121450
8040,513,103,127292,121459
8042,514,103,127296,121459
8045,513,103,127306,121474
8047,513,103,127305,121462
8050,513,103,127313,121461
8052,512,103,127306,121457
8055,513,103,127318,121457
8057,513,103,127321,121457
8060,513,103,127321,121466
8062,512,103,127321,121458
8065,513,103,127325,121458
8068,515,103,127336,121469
8070,516,103,127341,121456
8073,518,103,127341,121463
8075,520,103,127343,121460
8078,521,103,127343,121460
8080,521,102,127341,121462
8082,520,103,127341,121465
8085,520,102,127338,121462
8087,521,102,127339,121462
8090,521,102,127350,121460
8092,523,103,127354,121467
8095,524,102,127354,121465
8097,524,102,127349,121466
8100,524,102,127355,121466
8102,522,102,127358,121475
8104,520,102,127358,121478
8108,516,102,127364,121479
8110,514,102,127367,121479
8113,512,102,127377,121484
8115,510,102,127375,121472
8118,509,103,127372,121492
8120,506,102,127372,121485
8122,503,102,127370,121487
8125,500,102,127377,121490
8127,499,102,127379,121490
8130,496,102,127390,121492
8132,495,102,127390,121487
8135,494,102,127393,121490
8137,493,102,127389,121490
8140,493,102,127393,121499
8142,492,102,127393,121495
8144,491,102,127395,121497
8147,491,102,127398,121502
8150,491,102,127398,121509
8153,492,102,127411,121504
8155,492,102,127407,121504
8158,492,102,127418,121515
8160,493,102,127418,121517
8162,492,102,127414,121525
8165,492,102,127419,121525
8167,492,102,127421,121525
8170,493,102,127421,121527
8172,493,102,127435,121527
8175,494,102,127439,121535
8177,495,102,127439,121539
8180,496,102,127438,121537
8182,496,102,127437,121537
8184,495,102,127446,121539
8187,493,102,127449,121543
8189,492,102,127447,121543
8193,489,102,127447,121539
8195,488,102,127447,121538
8198,488,102,127454,121538
8200,490,102,127454,121538
8202,494,102,127461,121538
8205,499,102,127456,121538
8207,506,101,127454,121542
8210,533,102,127454,121536
8212,557,101,127463,121534
8215,576,102,127464,121534
8217,594,101,127470,121542
8220,617,102,127470,121539
8222,621,102,127469,121539
8224,624,101,127476,121541
8227,621,102,127476,121548
8229,606,102,127482,121551
8232,588,101,127494,121551
8235,564,101,127499,121553
8238,522,102,127499,121554
8240,498,101,127509,121559
8242,484,101,127509,121559
8245,470,101,127524,121563
8247,461,101,127521,121572
8250,446,101,127521,121571
8252,444,101,127533,121570
8255,446,101,127531,121570
8257,450,101,127539,121565
8260,463,101,127539,121573
8262,468,101,127539,121573
8264,478,101,127539,121575
8267,482,101,127547,121576
8269,485,101,127546,121573
8272,486,101,127546,121572
8274,487,101,127533,121575
8278,488,101,127540,121575
8280,489,101,127548,121577
8282,490,101,127556,121569
8285,490,101,127552,121576
8287,492,101,127561,121574
8290,492,101,127564,121576
8292,493,101,127564,121584
8295,495,101,127570,121582
8297,495,101,127577,121582
8300,496,101,127574,121586
8302,496,101,127573,121589
8304,496,101,127577,121594
8307,496,101,127580,121580
8309,497,101,127585,121586
8312,498,101,127590,121596
8314,498,101,127590,121596
8317,499,101,127590,121597
8320,500,101,127600,121597
8322,500,101,127601,121601
8325,500,101,127600,121607
8327,500,101,127609,121606
8330,499,100,127620,121605
8332,500,100,127611,121611
8335,501,100,127622,121615
8337,501,101,127623,121613
8340,501,100,127627,121618
8342,501,100,127629,121621
8344,502,101,127640,121627
8347,502,101,127641,121624
8349,502,101,127656,121626
8352,502,100,127660,121632
8354,503,100,127660,121638
8357,503,100,127658,121625
8359,503,100,127661,121626
8361,503,100,127662,121637
8365,503,100,127665,121641
8367,503,100,127658,121636
8370,504,100,127661,121643
8372,505,100,127652,121649
8375,504,100,127657,121645
8377,503,100,127652,121635
8380,503,100,127641,121632
8382,503,100,127639,121636
8384,502,100,127634,121632
8387,502,100,127613,121627
8389,502,100,127598,121619
8392,502,100,127587,121618
8394,502,100,127570,121619
8397,502,100,127561,121618
8399,502,100,127542,121620
8401,501,100,127530,121613
8404,501,100,127513,121596
8407,500,100,127500,121600
8410,499,100,127489,121587
8412,499,100,127470,121584
8415,498,100,127452,121578
8417,498,100,127431,121575
8420,498,100,127418,121568
8422,498,100,127398,121561
8424,498,100,127385,121559
8427,499,100,127374,121546
8429,499,100,127369,121542
8432,500,100,127353,121534
8434,501,100,127348,121534
8437,501,100,127328,121521
8439,502,100,127333,121521
8441,503,100,127329,121527
8444,505,100,127311,121515
8446,505,100,127303,121515
8450,508,100,127300,121500
8452,509,100,127294,121510
8455,510,100,127290,121498
8457,511,100,127289,121497
8460,512,100,127287,121490
8462,514,100,127271,121492
8464,515,100,127279,121495
8467,515,100,127268,121486
8469,515,100,127275,121488
8472,516,100,127270,121480
8474,516,100,127264,121480
8477,517,100,127268,121477
8479,517,100,127271,121483
8481,517,100,127270,121483
8484,518,100,127267,121482
8486,517,100,127273,121487
8489,517,99,127272,121484
8492,516,100,127265,121478
8495,516,100,127272,121478
8497,515,99,127266,121478
8500,515,100,127273,121481
8502,514,100,127264,121483
8504,514,99,127261,121482
8507,514,99,127261,121477
8509,515,99,127271,121475
8512,515,100,127276,121479
8514,515,99,127272,121486
8517,515,99,127270,121478
8519,515,100,127270,121483
8521,515,100,127286,121489
8524,515,99,127281,121486
8526,515,99,127277,121485
8529,515,99,127283,121474
8531,516,99,127288,121482
8535,516,99,127287,121483
8537,515,99,127291,121484
8540,516,99,127280,121482
8542,516,99,127297,121483
8544,516,99,127298,121486
8547,516,99,127298,121488
8549,517,99,127296,121486
8552,518,99,127296,121483
8554,518,99,127299,121488
8557,518,99,127302,121488
8559,518,99,127307,121489
8561,518,99,127310,121490
8564,517,99,127310,121491
8566,517,99,127310,121492
8569,516,99,127323,121483
8571,516,99,127318,121486
8574,515,99,127318,121497
8577,514,99,127330,121491
8580,514,99,127326,121491
8582,513,99,127347,121502
8584,513,99,127343,121500
8587,513,99,127344,121507
8589,513,99,127344,121505
8592,513,99,127351,121512
8594,513,99,127352,121504
8597,512,99,127352,121517
8599,512,99,127361,121515
8601,512,99,127359,121515
8604,511,99,127368,121518
8606,511,99,127368,121515
8609,512,99,127364,121518
8611,513,99,127372,121518
8614,514,99,127367,121527
8616,517,99,127374,121516
8620,518,99,127380,121533
8622,521,99,127388,121527
8624,521,99,127385,121527
8627,520,99,127385,121528
8629,520,99,127385,121531
8632,521,99,127396,121532
8634,522,99,127392,121532
8637,523,99,127399,121534
8639,525,99,127405,121533
8641,525,99,127405,121541
8644,525,99,127400,121542
8646,524,99,127398,121542
8649,521,98,127400,121542
8651,516,98,127400,121541
8654,513,99,127401,121541
8656,512,98,127408,121541
8659,510,99,127407,121545
8662,507,98,127405,121546
8664,505,98,127405,121546
8667,502,98,127413,121551
8669,500,98,127408,121551
8672,498,98,127410,121553
8674,495,98,127410,121551
8677,495,98,127406,121545
8679,495,98,127406,121545
8681,495,98,127418,121553
8684,494,98,127418,121546
8686,494,98,127422,121546
8689,493,98,127422,121559
8691,492,98,127422,121556
8694,493,98,127428,121556
8696,493,98,127428,121559
8699,492,98,127431,121555
8701,492,98,127424,121555
8704,491,98,127437,121557
8707,491,98,127424,121563
8709,492,98,127435,121563
8712,493,98,127435,121554
8714,493,98,127439,121556
8717,494,98,127430,121556
8719,495,98,127430,121554
8721,495,98,127427,121555
8724,495,98,127430,121555
8726,495,98,127441,121555
8729,493,98,127441,121551
8731,493,98,127440,121551
8734,490,98,127440,121553
8736,489,98,127440,121555
8739,488,98,127440,121555
8741,488,98,127440,121553
8743,490,98,127447,121554
8747,496,98,127433,121555
8749,504,98,127433,121547
8752,518,98,127441,121547
8754,538,98,127441,121554
8757,556,98,127443,121554
8759,575,98,127455,121560
8761,607,98,127455,121556
8764,615,98,127446,121556
8766,621,98,127451,121555
8769,624,98,127451,121547
8771,617,98,127447,121546
8774,604,98,127439,121546
8776,583,98,127435,121552
8779,541,98,127435,121554
8781,514,98,127448,121554
8783,496,98,127444,121554
8786,479,98,127445,121559
8788,466,98,127448,121567
8792,451,97,127448,121565
8794,446,98,127446,121565
8797,444,97,127441,121565
8799,446,97,127446,121562
8801,450,97,127446,121551
8804,465,97,127444,121558
8806,471,97,127445,121558
8809,477,97,127451,121560
8811,481,97,127456,121560
8814,483,97,127449,121554
8816,487,97,127450,121560
8819,488,97,127450,121560
8821,489,97,127452,121558
8823,490,97,127452,121554
8826,490,97,127447,121554
8828,492,97,127450,121554
8832,493,97,127459,121557
8834,494,97,127449,121562
8837,494,97,127454,121554
8839,496,97,127468,121553
8841,496,97,127463,121556
8844,496,97,127460,121573
8846,496,97,127460,121558
8849,497,97,127470,121569
8851,498,97,127466,121572
8854,498,97,127473,121584
8856,499,97,127480,121589
8859,499,97,127488,121584
8861,500,97,127491,121591
8863,500,97,127495,121597
8866,500,97,127498,121597
8868,500,97,127491,121600
8871,501,97,127501,121594
8873,501,97,127502,121598
8877,501,96,127488,121598
8879,501,96,127501,121594
8881,501,96,127498,121600
8884,501,96,127502,121604
8886,502,96,127513,121604
8889,502,96,127497,121604
8891,502,96,127514,121600
8894,502,96,127508,121608
8896,503,96,127510,121608
8899,504,96,127514,121616
8901,504,96,127502,121618
8903,504,96,127505,121612
8906,505,96,127491,121606
8908,505,96,127493,121607
8911,505,96,127486,121607
8913,506,96,127489,121604
8916,506,96,127492,121610
8919,506,96,127481,121604
8921,506,96,127474,121606
8924,507,96,127466,121593
8926,506,96,127451,121599
8929,506,96,127443,121601
8931,506,96,127450,121604
8934,505,96,127426,121605
8936,504,96,127418,121605
8939,504,96,127400,121592
8941,503,96,127394,121590
8943,502,96,127383,121593
8946,502,95,127379,121591
8948,502,95,127357,121578
8951,501,95,127342,121577
8953,501,95,127335,121571
8956,501,95,127308,121570
8958,501,95,127295,121558
8961,501,95,127289,121558
8964,501,95,127268,121556
8966,501,95,127248,121551
8969,501,95,127254,121544
8971,501,95,127237,121542
8974,501,95,127224,121537
8976,502,95,127212,121528
8979,503,95,127202,121521
8981,503,95,127189,121516
8983,504,95,127183,121521
8986,506,95,127172,121507
8988,507,95,127153,121502
8991,509,95,127148,121495
8993,510,95,127140,121489
8996,512,95,127127,121478
8998,513,95,127111,121474
9000,514,95,127103,121465
9004,516,95,127092,121461
9006,517,95,127092,121457
9009,517,95,127079,121446
9011,518,94,127069,121433
9014,519,94,127062,121428
9016,520,95,127049,121428
9019,521,94,127044,121420
9021,521,94,127041,121414
9023,521,94,127031,121409
9026,520,94,127024,121412
9028,520,94,127030,121410
9031,520,94,127029,121401
9033,520,94,127024,121378
9036,519,94,127022,121399
9038,519,94,127015,121400
9040,519,94,127013,121396
9043,518,94,127023,121396
9046,518,94,127016,121403
9049,518,94,127017,121399
9051,518,94,127033,121401
9054,518,94,127033,121408
9056,518,94,127025,121411
9059,518,94,127032,121411
9061,518,94,127030,121410
9063,518,94,127035,121402
9066,518,94,127032,121405
9068,518,94,127034,121410
9071,519,94,127038,121409
9073,518,94,127042,121414
9076,518,94,127042,121416
9078,518,94,127034,121419
9080,519,94,127038,121419
9083,519,94,127049,121415
9085,518,94,127059,121416
9089,517,94,127048,121424
9091,517,94,127058,121425
9094,517,94,127058,121422
9096,517,94,127063,121424
9099,517,94,127068,121427
9101,517,94,127067,121427
9103,517,94,127067,121429
9106,517,94,127076,121426
9108,517,94,127084,121441
9111,517,94,127084,121437
9113,516,94,127090,121440
9116,517,94,127101,121440
9118,517,94,127105,121437
9120,516,94,127105,121436
9123,516,94,127107,121444
9125,516,94,127106,121444
9128,515,94,127123,121437
9131,515,94,127121,121437
9134,516,94,127121,121443
9136,518,93,127114,121443
9139,519,94,127121,121441
9141,522,93,127119,121437
9143,523,94,127119,121436
9146,524,93,127126,121429
9148,524,93,127119,121429
9151,523,93,127127,121434
9153,522,94,127120,121434
9156,522,94,127126,121430
9158,523,93,127126,121430
9160,525,93,127134,121435
9163,526,93,127122,121429
9165,527,93,127131,121429
9168,527,93,127134,121436
9170,526,93,127134,121447
9174,524,93,127145,121441
9176,522,93,127140,121441
9179,518,93,127152,121448
9181,514,93,127152,121448
9183,513,93,127156,121449
9186,510,93,127157,121457
9188,508,93,127157,121456
9191,505,93,127152,121451
9193,504,93,127157,121451
9196,502,93,127155,121453
9198,500,93,127155,121459
9200,499,93,127160,121457
9203,499,93,127162,121457
9205,499,93,127165,121459
9208,498,93,127165,121463
9210,498,93,127163,121463
9213,496,93,127175,121468
9216,496,93,127175,121463
9219,495,93,127167,121459
9221,495,93,127178,121459
9223,495,93,127175,121469
9226,495,93,127175,121461
9228,496,93,127176,121463
9231,496,93,127175,121463
9233,496,93,127187,121469
9236,495,93,127187,121464
9238,495,93,127187,121464
9240,496,93,127200,121478
9243,496,93,127200,121472
9245,497,93,127190,121471
9248,497,93,127202,121471
9250,498,93,127202,121474
9253,498,93,127202,121474
9255,497,93,127206,121480
9259,496,93,127207,121480
9261,494,93,127207,121480
9263,492,93,127217,121475
9266,491,93,127218,121484
9268,493,93,127218,121476
9271,496,93,127224,121482
9273,503,93,127220,121479
9276,510,93,127224,121479
9278,520,93,127228,121477
9280,552,93,127228,121475
9283,567,93,127234,121475
9285,589,93,127234,121486
9288,617,93,127234,121483
9290,625,93,127228,121483
9293,629,93,127222,121470
9295,631,93,127230,121470
9298,628,93,127230,121469
9300,595,93,127233,121473
9303,577,93,127236,121473
9306,553,93,127241,121468
9308,528,94,127240,121475
9311,509,93,127237,121464
9313,476,93,127252,121475
9316,465,93,127248,121476
9318,457,93,127262,121476
9320,452,94,127262,121482
9323,446,93,127266,121489
9325,448,93,127279,121489
9328,453,93,127276,121489
9330,460,93,127287,121488
9333,466,94,127296,121500
9335,479,93,127301,121500
9338,483,93,127317,121506
9340,486,93,127312,121519
9342,488,93,127312,121523
9346,489,93,127328,121523
9348,490,94,127333,121517
9351,491,94,127359,121531
9353,493,94,127356,121527
9356,494,94,127352,121537
9358,495,94,127357,121532
9360,496,94,127344,121534
9363,496,94,127355,121527
9365,498,94,127349,121528
9368,499,94,127344,121531
9370,500,94,127362,121530
9373,500,94,127362,121528
9375,502,94,127369,121533
9378,502,94,127372,121535
9380,503,94,127364,121527
9382,502,94,127361,121536
9385,502,94,127366,121538
9388,502,94,127373,121540
9391,502,94,127378,121550
9393,502,94,127383,121549
9396,503,94,127393,121550
9398,503,94,127384,121557
9400,503,94,127402,121561
9403,503,94,127404,121554
9405,503,94,127414,121567
9408,503,94,127407,121563
9410,503,94,127407,121562
9413,504,94,127418,121564
9415,504,94,127419,121566
9418,505,94,127420,121580
9420,505,94,127423,121569
9422,505,94,127426,121577
9425,505,94,127421,121574
9427,505,94,127424,121575
9431,506,94,127431,121573
9433,506,94,127444,121580
9436,507,94,127433,121584
9438,507,94,127428,121574
9440,507,94,127437,121582
9443,506,94,127435,121576
9445,505,94,127430,121579
9448,505,94,127430,121574
9450,505,94,127434,121583
9453,504,94,127428,121579
9455,503,94,127417,121578
9458,502,94,127405,121572
9460,502,94,127400,121573
9462,502,94,127398,121582
9465,502,94,127393,121566
9467,501,94,127376,121576
9470,501,94,127371,121563
9473,501,94,127361,121566
9476,501,94,127344,121563
9478,500,94,127331,121559
9480,500,94,127324,121561
9483,499,94,127314,121564
9485,498,94,127306,121562
9488,498,94,127299,121553
9490,498,94,127287,121550
9493,498,94,127277,121552
9495,499,94,127269,121551
9498,499,94,127264,121542
9500,499,94,127252,121549
9502,500,94,127252,121541
9505,501,94,127232,121537
9507,504,94,127230,121532
9510,505,94,127215,121527
9512,507,94,127211,121517
9516,509,94,127207,121514
9518,509,94,127205,121519
9520,511,94,127198,121514
9523,513,94,127183,121510
9525,514,94,127190,121505
9528,514,94,127186,121511
9530,515,94,127181,121504
9533,516,94,127180,121507
9535,517,94,127175,121506
9538,518,94,127173,121511
9540,518,94,127180,121510
9542,517,94,127173,121504
9545,517,94,127176,121512
9547,518,94,127186,121504
9550,518,94,127177,121516
9552,518,94,127185,121513
9555,518,94,127187,121514
9558,518,94,127176,121504
9560,517,94,127185,121507
9563,517,95,127192,121517
9565,517,94,127195,121516
9568,516,95,127197,121522
9570,517,94,127196,121520
9573,517,95,127196,121518
9575,517,94,127197,121514
9578,517,94,127208,121514
9580,517,95,127214,121513
9582,518,95,127213,121516
9585,518,95,127210,121508
9587,518,95,127209,121510
9590,518,95,127214,121518
9592,519,94,127225,121519
9595,518,94,127225,121513
9597,518,95,127224,121515
9600,518,95,127224,121515
9603,517,95,127228,121515
9605,516,95,127229,121515
9608,516,95,127229,121523
9610,516,95,127233,121514
9613,516,95,127237,121508
9615,515,95,127239,121505
9618,515,95,127239,121505
9620,514,95,127238,121510
9622,515,95,127238,121510
9625,515,95,127256,121527
9627,516,95,127252,121521
9630,516,95,127252,121520
9632,516,95,127259,121520
9635,517,95,127264,121524
9637,516,95,127268,121529
9639,517,95,127268,121541
9643,518,95,127275,121534
9645,519,95,127283,121534
9648,520,94,127304,121551
9650,522,95,127304,121550
9653,523,94,127305,121557
9655,523,95,127314,121557
9658,523,95,127319,121561
9660,524,95,127323,121570
9662,523,95,127323,121563
9665,524,95,127331,121565
9667,525,95,127335,121565
9670,525,95,127337,121572
9672,526,95,127345,121575
9675,526,95,127343,121574
9677,525,95,127343,121573
9679,522,95,127354,121580
9682,519,95,127346,121574
9684,517,95,127350,121574
9688,513,95,127366,121574
9690,512,95,127366,121572
9693,510,95,127359,121572
9695,509,95,127363,121572
9698,507,95,127359,121577
9700,503,95,127359,121573
9702,501,95,127372,121576
9705,499,95,127367,121571
9707,499,95,127367,121565
9710,499,95,127374,121569
9712,499,95,127375,121569
9715,499,95,127379,121574
9717,498,95,127379,121566
9719,497,95,127383,121573
9722,497,95,127383,121573
9724,496,95,127392,121576
9728,496,95,127392,121580
9730,496,95,127389,121580
9733,495,95,127401,121586
9735,495,95,127401,121589
9738,496,94,127402,121594
9740,496,95,127411,121594
9742,496,95,127410,121596
9745,496,95,127410,121594
9747,496,95,127411,121599
9750,496,95,127419,121599
9752,496,95,127427,121605
9755,495,95,127427,121598
9757,495,95,127420,121598
9759,496,95,127427,121611
9762,496,95,127427,121600
9764,495,95,127421,121600
9767,494,95,127431,121600
9769,492,95,127430,121600
9773,490,95,127430,121600
9775,490,95,127433,121608
9778,491,95,127437,121608
9780,496,95,127437,121611
9782,505,95,127448,121608
9785,513,95,127445,121608
9787,528,95,127445,121613
9790,568,95,127459,121611
9792,592,95,127447,121609
9795,607,95,127451,121609
9797,617,95,127452,121611
9799,626,95,127452,121612
9802,628,95,127449,121612
9804,628,95,127449,121607
9807,607,95,127462,121614
9809,584,95,127467,121613
9812,564,95,127457,121613
9815,543,95,127456,121611
9818,503,95,127456,121610
9820,489,95,127464,121610
9822,474,95,127464,121609
9825,456,95,127472,121616
9827,448,95,127473,121613
9830,443,95,127471,121608
9832,444,95,127478,121608
9835,447,95,127473,121608
9837,452,95,127481,121610
9839,460,95,127483,121621
9842,468,95,127494,121619
9844,479,95,127480,121616
9847,483,95,127492,121614
9849,485,95,127492,121617
9852,488,95,127492,121620
9854,489,95,127497,121620
9858,489,95,127495,121622
9860,489,95,127492,121631
9862,490,95,127494,121620
9865,491,95,127503,121624
9867,493,95,127505,121629
9870,493,95,127504,121628
9872,494,95,127521,121636
9875,495,95,127521,121634
9877,497,95,127527,121633
9879,498,95,127524,121638
9882,498,95,127514,121641
9884,499,95,127531,121633
9887,499,95,127536,121646
9889,500,95,127538,121648
9892,500,95,127543,121641
9894,500,95,127541,121642
9897,500,95,127547,121655
9900,500,95,127539,121651
9902,500,95,127547,121653
9905,500,95,127549,121649
9907,501,95,127552,121653
9910,501,95,127562,121647
9912,501,95,127564,121650
9915,501,95,127571,121656
9917,502,95,127564,121655
9919,503,95,127573,121656
9922,503,95,127572,121651
9924,504,95,127567,121652
9927,504,95,127561,121656
9929,504,95,127559,121649
9932,504,95,127563,121652
9934,504,95,127565,121658
9937,504,95,127566,121658
9939,505,95,127567,121650
9942,505,95,127576,121655
9945,504,95,127575,121661
9947,504,95,127579,121658
9950,504,95,127576,121669
9952,504,95,127568,121659
9955,504,95,127575,121662
9957,503,95,127570,121662
9959,502,95,127553,121660
9962,501,95,127559,121658
9964,501,95,127554,121669
9967,500,95,127563,121667
9969,500,95,127544,121665
9972,500,95,127527,121659
9974,500,95,127509,121647
9977,499,95,127513,121648
9979,498,95,127489,121648
9981,498,95,127480,121641
9985,498,95,127479,121644
9987,498,95,127462,121645
9990,497,95,127449,121633
9992,496,95,127436,121630
9995,496,95,127430,121622
9997,496,95,127412,121619
9999,497,95,127404,121614
10002,498,95,127386,121600
10004,499,95,127375,121598
10007,498,95,127356,121588
10009,498,95,127340,121591
10012,499,95,127340,121575
10014,500,95,127330,121572
10017,501,95,127316,121574
10019,504,95,127301,121562
10021,506,95,127300,121558
10024,507,95,127288,121555
10027,509,95,127291,121549
10030,511,95,127273,121552
10032,512,95,127281,121553
10035,513,95,127273,121543
10037,515,95,127270,121541
10039,517,95,127272,121540
10042,517,95,127253,121547
10044,518,95,127263,121540
10047,520,95,127258,121539
10049,520,95,127262,121536
10052,521,95,127266,121543
10054,521,95,127254,121534
10057,520,95,127258,121535
10059,520,95,127266,121539
10061,519,95,127261,121536
10064,519,95,127268,121535
10066,519,95,127261,121534
10070,519,95,127263,121535
10072,519,95,127266,121535
10075,518,95,127271,121544
10077,518,95,127268,121530
10079,517,95,127267,121530
10082,517,95,127269,121532
10084,518,95,127264,121521
10087,517,95,127271,121531
10089,517,95,127263,121531
10092,517,95,127273,121533
10094,517,95,127279,121531
10097,517,95,127279,121532
10099,518,95,127270,121530
10101,519,95,127282,121530
10104,518,95,127288,121534
10106,518,95,127284,121529
10109,518,95,127284,121527
10112,518,95,127285,121534
10115,518,95,127291,121534
10117,518,95,127301,121539
10119,519,95,127295,121535
10122,519,95,127293,121531
10124,520,95,127293,121535
10127,521,95,127301,121537
10129,524,95,127300,121535
10132,525,95,127300,121533
10134,527,95,127310,121534
10137,528,95,127314,121534
10139,529,95,127326,121548
10141,528,95,127327,121542
10144,527,95,127329,121549
10146,528,95,127329,121549
10149,528,95,127335,121554
10151,530,95,127339,121556
10155,531,95,127339,121552
10157,532,95,127349,121558
10159,532,95,127356,121558
10162,531,95,127362,121564
10164,529,95,127362,121565
10167,526,95,127372,121559
10169,523,95,127376,121559
10172,521,95,127384,121566
10174,518,95,127388,121572
10177,518,95,127390,121573
10179,515,95,127393,121576
10181,514,95,127397,121576
10184,508,95,127408,121580
10186,506,95,127408,121586
10189,503,95,127408,121585
10191,502,95,127420,121585
10194,501,95,127421,121589
10196,501,95,127423,121596
10199,500,95,127423,121592
10202,500,95,127421,121592
10204,499,95,127431,121595
10207,497,95,127435,121594
10209,496,95,127435,121595
10212,496,95,127432,121594
10214,496,95,127440,121594
10217,495,95,127449,121596
10219,495,95,127449,121599
10221,495,95,127458,121601
10224,496,95,127451,121601
10226,496,95,127454,121601
10229,497,95,127455,121610
10231,497,95,127455,121603
10234,498,95,127454,121610
10236,499,95,127451,121610
10238,499,95,127464,121607
10242,497,95,127464,121601
10244,497,95,127466,121601
10247,496,95,127466,121608
10249,495,95,127467,121607
10252,494,95,127467,121607
10254,491,95,127467,121605
10257,488,95,127469,121605
10259,487,95,127472,121605
10261,486,95,127478,121609
10264,487,95,127469,121600
10266,488,95,127470,121600
10269,500,95,127470,121605
10271,515,95,127471,121598
10274,530,95,127469,121598
10276,561,95,127469,121606
10278,587,95,127477,121600
10281,602,95,127475,121600
10284,613,95,127475,121602
10287,623,95,127475,121608
10289,625,95,127473,121602
10292,624,95,127479,121602
10294,615,95,127490,121606
10297,582,95,127490,121604
10299,566,96,127486,121604
10301,542,96,127489,121614
10304,503,95,127489,121610
10306,483,95,127491,121614
10309,471,95,127500,121614
10311,460,95,127491,121616
10314,447,96,127491,121610
10316,443,95,127492,121618
10318,443,95,127498,121618
10321,446,95,127505,121617
10323,451,95,127497,121611
10327,466,95,127497,121614
10329,473,95,127501,121614
10332,478,96,127498,121614
10334,481,95,127502,121615
10337,484,95,127502,121613
10339,487,96,127512,121616
10341,488,95,127509,121616
10344,489,95,127515,121623
10346,490,95,127511,121609
10349,491,95,127501,121609
10351,492,95,127525,121608
10354,493,95,127524,121612
10356,494,95,127521,121621
10358,495,95,127521,121622
10361,496,95,127528,121616
10363,497,96,127529,121616
10366,498,95,127537,121628
10369,498,95,127534,121620
10372,499,95,127534,121616
10374,498,95,127536,121621
10377,498,96,127546,121620
10379,498,95,127546,121627
10381,499,96,127549,121627
10384,499,95,127553,121624
10386,500,96,127556,121620
10389,499,96,127563,121631
10391,501,95,127566,121620
10394,501,96,127562,121627
10396,501,96,127565,121626
10398,501,96,127564,121631
10401,501,96,127581,121628
10403,502,96,127568,121636
10406,502,96,127566,121640
10408,502,95,127575,121632
10412,502,95,127584,121633
10414,503,96,127588,121647
10417,503,96,127593,121638
10419,503,95,127589,121629
10421,503,96,127591,121639
10424,504,95,127590,121640
10426,504,96,127590,121654
10429,505,95,127596,121651
10431,505,96,127600,121646
10434,504,96,127604,121648
10436,504,96,127594,121649
10438,504,96,127603,121642
10441,503,95,127600,121647
10443,502,95,127592,121647
10446,501,96,127584,121645
10448,501,95,127576,121650
10451,501,95,127575,121645
10454,501,96,127564,121649
10457,501,95,127551,121648
10459,500,96,127548,121641
10461,499,96,127539,121644
10464,499,95,127539,121642
10466,498,96,127527,121635
10469,498,96,127512,121625
10471,497,95,127507,121626
10474,497,96,127482,121626
10476,496,96,127471,121618
10478,496,96,127464,121616
10481,496,96,127434,121607
10483,495,95,127434,121605
10486,496,95,127426,121587
10488,497,96,127413,121588
10491,497,95,127396,121590
10493,499,96,127396,121586
10497,500,96,127368,121577
10499,501,96,127370,121566
10501,501,95,127354,121563
10504,503,95,127348,121558
10506,504,95,127341,121546
10509,506,95,127327,121555
10511,509,95,127325,121556
10514,510,95,127319,121544
10516,512,95,127320,121546
10518,513,95,127313,121545
10521,514,95,127291,121537
10523,515,96,127291,121535
10526,515,95,127286,121535
10528,517,95,127294,121532
10531,518,96,127295,121529
10533,519,95,127284,121530
10536,519,96,127293,121533
10539,518,96,127290,121534
10541,518,96,127302,121535
10544,518,96,127294,121529
10546,519,95,127291,121532
10549,519,96,127304,121532
10551,518,96,127295,121536
10554,518,96,127298,121532
10556,518,96,127306,121529
10558,517,96,127301,121534
10561,517,96,127303,121535
10563,517,95,127308,121532
10566,517,96,127312,121529
10568,517,96,127304,121527
10571,516,96,127312,121530
10573,516,96,127309,121535
10576,517,96,127308,121529
10578,517,96,127320,121529
10580,516,95,127313,121526
10584,516,96,127317,121534
10586,516,96,127325,121527
10589,516,96,127324,121536
10591,517,96,127321,121522
10594,517,96,127333,121538
10596,518,96,127331,121521
10598,518,96,127340,121526
10601,518,96,127337,121531
10603,518,96,127333,121534
10606,518,96,127345,121537
10608,518,96,127351,121538
10611,518,96,127351,121539
10613,519,96,127362,121542
10616,520,96,127367,121542
10618,523,96,127376,121555
10620,525,96,127377,121546
10624,525,96,127388,121554
10626,526,96,127377,121549
10629,526,96,127388,121555
10631,525,96,127393,121562
10634,525,96,127393,121565
10636,526,96,127407,121561
10638,527,96,127413,121561
10641,529,96,127416,121567
10643,530,96,127421,121563
10646,530,96,127417,121562
10648,529,96,127417,121566
10651,526,96,127426,121571
10653,522,96,127429,121574
10656,520,96,127429,121570
10658,517,96,127439,121576
10660,515,96,127435,121576
