TimeStamp,ECG Data,GSR Data,PPG_Red Data,PPG_IR Data
3,0,0,0,0
6,505,82,0,0
8,504,83,57519,57579
11,504,83,73880,73955
13,503,83,90304,90316
15,503,83,106696,106709
18,504,83,123083,120057
20,505,84,127473,120060
23,505,84,127479,120056
25,505,84,127479,120055
28,505,84,127477,120055
30,506,84,127477,120060
33,507,85,127479,120054
35,508,85,127479,120055
37,508,85,127480,120054
40,509,85,127485,120053
43,511,86,127479,120055
46,511,86,127477,120055
48,511,86,127480,120050
51,511,86,127473,120061
53,511,86,127483,120057
55,510,86,127484,120051
58,510,86,127464,120047
60,510,86,127467,120050
63,511,87,127454,120047
65,511,87,127451,120039
68,511,87,127436,120033
70,509,87,127414,120027
73,509,87,127401,120027
75,509,87,127384,120015
77,509,88,127351,120004
80,509,88,127331,119993
82,508,88,127307,119976
86,508,88,127281,119969
88,508,88,127249,119951
91,507,88,127218,119937
93,507,88,127183,119922
95,506,88,127145,119911
98,506,88,127116,119887
100,506,89,127086,119879
103,506,89,127053,119856
105,506,89,127025,119839
108,507,89,126994,119839
110,508,89,126964,119821
113,509,89,126952,119812
115,510,89,126923,119802
117,511,89,126898,119795
120,511,89,126884,119786
122,512,89,126866,119777
125,513,89,126848,119775
128,513,89,126837,119772
131,513,89,126833,119768
133,513,89,126824,119768
135,514,89,126811,119766
138,514,90,126804,119764
140,514,89,126807,119757
143,515,89,126799,119758
145,516,90,126787,119757
148,516,90,126792,119751
150,515,90,126796,119749
153,514,90,126784,119755
155,514,90,126778,119753
157,514,90,126787,119750
160,514,90,126786,119744
162,514,90,126789,119757
165,514,90,126782,119749
167,513,90,126782,119738
171,513,90,126793,119745
173,513,90,126792,119744
175,512,90,126781,119741
178,511,90,126783,119743
180,511,90,126794,119739
183,511,90,126787,119746
185,512,90,126784,119742
188,512,90,126786,119735
190,510,90,126792,119734
193,510,90,126803,119744
195,509,90,126801,119740
197,509,90,126806,119742
200,509,90,126809,119741
202,509,90,126814,119748
205,510,90,126823,119746
207,510,90,126818,119742
210,511,90,126812,119747
212,512,90,126833,119753
215,513,90,126829,119753
218,512,89,126833,119761
220,513,90,126838,119751
223,513,90,126847,119757
225,513,89,126842,119750
228,513,90,126845,119755
230,513,89,126858,119769
233,513,90,126862,119766
235,513,90,126863,119766
237,513,90,126871,119766
240,513,89,126878,119773
242,514,89,126888,119772
245,514,89,126888,119782
247,514,89,126892,119790
250,514,89,126903,119790
252,512,89,126913,119799
254,511,89,126921,119790
258,511,89,126918,119791
260,511,89,126935,119799
263,511,89,126945,119805
265,511,89,126952,119813
268,511,89,126952,119809
270,510,89,126956,119809
273,510,89,126969,119809
275,510,89,126985,119826
277,509,89,126989,119819
280,509,89,126989,119825
282,508,89,126989,119823
285,508,89,127013,119835
287,509,89,127001,119827
290,509,89,127001,119836
292,509,89,127027,119842
294,510,89,127038,119842
297,509,89,127052,119845
300,509,89,127043,119846
303,510,89,127061,119853
305,510,89,127061,119855
308,511,89,127070,119861
310,513,89,127077,119859
313,515,89,127077,119859
315,517,89,127083,119858
317,519,89,127094,119858
320,519,89,127104,119873
322,520,89,127104,119883
325,521,89,127108,119888
327,521,89,127113,119888
330,522,89,127125,119885
332,523,89,127125,119888
334,524,89,127126,119888
337,524,89,127129,119891
339,524,89,127129,119897
343,522,89,127135,119896
345,520,89,127146,119896
348,516,89,127139,119898
350,512,89,127139,119898
353,510,89,127142,119900
355,509,89,127144,119899
357,508,89,127144,119908
360,506,89,127149,119903
362,504,89,127150,119903
365,501,89,127156,119903
367,498,89,127156,119900
370,497,89,127151,119899
372,497,89,127148,119899
374,497,89,127147,119900
377,496,89,127151,119897
379,496,89,127149,119897
382,495,89,127153,119893
385,493,89,127153,119898
388,492,89,127146,119898
390,493,89,127146,119894
393,494,89,127147,119902
395,494,89,127151,119902
397,494,89,127164,119907
400,493,89,127165,119903
402,494,89,127158,119903
405,495,89,127158,119902
407,495,89,127170,119912
410,495,89,127172,119912
412,496,89,127172,119910
414,497,89,127169,119909
417,497,89,127180,119909
419,497,89,127187,119910
422,498,89,127187,119911
424,499,89,127188,119911
428,499,89,127188,119910
430,499,89,127189,119911
433,499,89,127202,119911
435,499,89,127202,119913
437,498,89,127202,119912
440,496,89,127208,119920
442,495,89,127208,119915
445,494,89,127212,119926
447,493,89,127214,119921
450,494,89,127220,119921
452,495,89,127231,119927
454,502,89,127231,119932
457,509,89,127223,119932
459,522,89,127233,119936
462,556,89,127233,119937
464,584,89,127238,119936
467,604,89,127245,119936
470,621,89,127250,119930
473,636,89,127250,119939
475,639,89,127266,119946
477,639,89,127262,119946
480,631,89,127273,119942
482,613,89,127273,119946
485,571,89,127273,119950
487,541,89,127279,119955
490,520,89,127284,119955
492,498,89,127285,119957
494,483,89,127285,119959
497,457,89,127294,119964
499,451,89,127291,119964
502,444,89,127295,119967
504,442,89,127305,119975
507,443,89,127308,119966
509,455,89,127319,119974
513,463,89,127322,119979
515,470,89,127333,119986
517,476,89,127333,119986
520,483,89,127342,119995
522,485,88,127340,119995
525,487,89,127348,119996
527,488,89,127356,120002
530,489,88,127363,120004
532,490,89,127370,120009
534,491,88,127379,120008
537,492,88,127378,120009
539,494,88,127383,120011
542,495,88,127398,120019
544,496,88,127398,120020
547,497,88,127400,120020
549,498,88,127400,120025
552,498,88,127425,120034
555,498,88,127417,120037
557,499,89,127427,120031
560,499,88,127434,120027
562,499,89,127426,120041
565,499,89,127434,120039
567,499,89,127437,120034
570,499,88,127437,120035
572,501,88,127448,120037
574,502,88,127455,120040
577,503,89,127442,120042
579,502,88,127457,120045
582,502,89,127455,120043
584,503,88,127456,120049
587,503,88,127466,120045
589,503,88,127467,120051
592,504,88,127462,120054
594,505,88,127470,120055
596,505,89,127478,120062
600,506,88,127486,120062
602,507,88,127502,120065
605,506,89,127488,120070
607,507,88,127493,120072
610,507,88,127503,120068
612,508,89,127504,120076
614,509,88,127500,120073
617,510,89,127509,120076
619,510,89,127512,120078
622,510,88,127519,120075
624,510,88,127522,120078
627,510,88,127506,120077
629,510,89,127513,120077
632,510,88,127508,120068
634,510,89,127505,120073
636,509,89,127496,120069
640,509,89,127492,120060
642,509,88,127488,120069
645,509,89,127464,120059
647,509,89,127444,120048
650,508,89,127435,120047
652,508,89,127414,120033
654,507,88,127387,120027
657,507,88,127361,120006
659,506,89,127337,119997
662,506,88,127309,119981
664,505,89,127270,119972
667,506,89,127252,119954
669,507,88,127217,119937
672,507,88,127178,119918
674,507,89,127139,119902
676,507,88,127105,119897
679,507,88,127069,119869
681,507,88,127050,119864
685,507,88,127008,119847
687,507,88,126992,119836
690,508,88,126961,119818
692,508,88,126941,119804
694,509,88,126909,119794
697,511,88,126888,119785
699,512,88,126867,119780
702,513,88,126862,119774
704,514,89,126843,119762
707,515,88,126828,119760
709,515,88,126817,119751
712,515,88,126813,119750
714,514,88,126795,119742
716,514,88,126789,119738
719,515,88,126787,119737
721,516,88,126790,119730
724,516,88,126773,119727
727,516,88,126777,119722
730,516,88,126766,119718
732,515,89,126761,119723
734,515,88,126766,119717
737,514,88,126764,119715
739,513,88,126760,119715
742,511,88,126760,119723
744,511,88,126762,119717
747,511,88,126754,119714
749,511,88,126753,119714
752,511,88,126763,119720
754,510,88,126774,119720
756,510,88,126767,119719
759,509,88,126776,119727
761,509,88,126776,119730
764,508,89,126781,119722
766,508,88,126779,119723
770,509,88,126779,119725
772,509,88,126790,119726
774,510,88,126786,119726
777,510,88,126800,119732
779,511,88,126794,119727
782,510,89,126800,119725
784,510,89,126800,119728
787,511,89,126800,119733
789,510,88,126798,119732
792,510,88,126798,119725
794,509,88,126803,119721
796,510,88,126799,119721
799,511,88,126809,119724
801,512,88,126807,119722
804,512,89,126807,119728
806,512,88,126822,119725
809,512,88,126817,119725
812,512,88,126826,119727
814,512,88,126826,119733
817,512,89,126823,119733
819,511,88,126830,119733
822,511,88,126839,119740
824,511,89,126847,119733
827,512,88,126847,119735
829,512,88,126851,119744
832,513,89,126871,119744
834,513,88,126868,119751
836,513,89,126868,119756
839,512,88,126890,119763
841,512,89,126897,119763
844,511,89,126908,119766
846,510,89,126917,119773
849,510,89,126917,119783
851,510,89,126917,119779
854,509,89,126930,119793
857,509,89,126942,119790
859,509,89,126958,119790
862,509,89,126967,119796
864,509,89,126967,119806
867,510,88,126978,119811
869,510,89,126977,119811
872,510,89,126992,119811
874,508,89,126992,119811
876,508,89,126998,119811
879,508,89,126996,119818
881,509,89,126996,119821
884,509,89,127002,119815
886,511,89,127017,119815
889,512,89,127021,119817
891,516,89,127021,119823
893,518,89,127023,119825
897,519,89,127036,119835
899,518,89,127045,119835
902,518,89,127045,119841
904,518,89,127046,119841
907,519,89,127053,119844
909,520,89,127053,119845
912,522,89,127061,119838
914,523,89,127058,119838
916,523,89,127068,119844
919,522,89,127080,119836
921,520,89,127067,119836
924,516,89,127067,119850
926,513,89,127071,119846
929,511,89,127077,119846
931,509,89,127077,119851
933,508,89,127089,119851
936,507,89,127085,119851
939,505,89,127087,119851
942,501,89,127087,119861
944,499,89,127096,119858
947,498,89,127101,119858
949,498,89,127101,119862
952,497,89,127101,119866
954,496,89,127095,119866
956,495,89,127096,119869
959,494,89,127096,119866
961,493,89,127107,119869
964,492,89,127111,119869
966,491,89,127117,119872
969,491,89,127117,119879
971,492,89,127114,119870
973,493,89,127113,119870
976,494,89,127130,119876
978,494,89,127124,119884
982,494,89,127124,119879
984,494,89,127131,119881
987,494,89,127129,119881
989,493,89,127130,119881
992,493,89,127130,119881
994,493,89,127136,119881
996,494,89,127136,119883
999,496,89,127144,119888
1001,497,89,127151,119888
1004,498,89,127151,119894
1006,498,89,127149,119902
1009,499,89,127160,119902
1011,498,89,127154,119898
1013,498,89,127164,119893
1016,497,89,127158,119898
1018,494,89,127169,119896
1021,493,89,127172,119900
1024,491,89,127172,119900
1027,490,89,127179,119902
1029,492,89,127177,119902
1032,494,89,127182,119906
1034,499,89,127187,119904
1036,506,89,127193,119907
1039,517,89,127207,119911
1041,552,89,127198,119908
1044,576,89,127206,119911
1046,597,89,127220,119916
1049,617,89,127220,119912
1051,639,89,127230,119912
1053,642,89,127222,119913
1056,643,89,127221,119923
1058,639,89,127226,119914
1061,623,89,127239,119917
1063,578,89,127243,119924
1067,554,89,127249,119924
1069,527,89,127244,119921
1072,507,89,127257,119927
1074,484,89,127252,119932
1076,459,89,127260,119934
1079,449,89,127267,119936
1081,443,89,127280,119936
1084,440,89,127285,119940
1086,447,89,127283,119941
1089,453,89,127289,119952
1091,462,89,127293,119940
1093,468,89,127297,119951
1096,476,89,127301,119956
1098,481,89,127302,119952
1101,483,89,127308,119956
1103,485,89,127298,119955
1106,486,89,127305,119949
1108,487,89,127309,119942
1112,487,89,127312,119947
1114,488,89,127313,119941
1116,489,89,127320,119951
1119,490,89,127317,119947
1121,491,89,127316,119947
1124,492,89,127323,119949
1126,494,89,127328,119950
1129,495,89,127335,119950
1131,496,89,127332,119952
1133,497,89,127334,119958
1136,497,89,127353,119960
1138,497,89,127350,119966
1141,498,89,127374,119970
1143,499,89,127378,119977
1146,499,89,127382,119987
1148,500,89,127398,119991
1152,500,88,127414,119999
1154,502,89,127403,120009
1156,502,89,127422,120014
1159,503,89,127431,120017
1161,503,89,127449,120025
1164,503,89,127450,120030
1166,503,89,127461,120036
1169,503,89,127477,120038
1171,503,89,127488,120050
1173,503,89,127497,120061
1176,504,89,127498,120057
1178,504,89,127514,120069
1181,504,89,127512,120068
1183,504,89,127516,120075
1186,504,89,127530,120064
1188,505,88,127537,120073
1191,506,88,127534,120074
1193,507,88,127540,120076
1196,507,88,127542,120081
1199,506,89,127538,120067
1201,506,89,127536,120072
1204,507,88,127525,120068
1206,508,89,127523,120065
1209,509,88,127517,120058
1211,509,88,127508,120060
1213,509,88,127500,120054
1216,508,88,127498,120054
1218,508,88,127480,120053
1221,507,88,127473,120045
1223,507,88,127458,120029
1226,506,88,127425,120018
1228,506,88,127411,120014
1231,506,89,127384,119999
1233,505,88,127360,119983
1235,505,88,127317,119968
1239,506,88,127296,119962
1241,506,88,127262,119941
1244,506,88,127230,119931
1246,507,88,127200,119919
1249,506,88,127156,119897
1251,506,88,127133,119882
1253,506,88,127107,119865
1256,506,88,127067,119852
1258,506,88,127043,119838
1261,507,88,127010,119826
1263,507,88,126987,119812
1266,508,88,126962,119801
1268,508,88,126934,119789
1271,508,88,126917,119778
1273,509,88,126898,119776
1275,509,88,126881,119758
1278,510,88,126872,119754
1281,511,88,126860,119750
1284,513,88,126842,119750
1286,514,88,126837,119742
1289,514,88,126837,119730
1291,515,88,126808,119735
1293,515,88,126808,119735
1296,516,88,126797,119728
1298,516,88,126795,119731
1301,515,88,126795,119721
1303,514,88,126786,119720
1306,513,88,126786,119720
1308,512,88,126782,119718
1311,512,88,126782,119720
1313,512,88,126783,119720
1315,512,88,126778,119720
1318,511,88,126781,119725
1320,511,88,126784,119720
1324,511,88,126784,119716
1326,511,88,126779,119714
1329,512,88,126792,119714
1331,512,88,126787,119720
1333,512,88,126787,119719
1336,511,88,126789,119719
1338,511,88,126793,119719
1341,510,88,126802,119732
1343,510,88,126795,119722
1346,509,88,126795,119720
1348,509,88,126802,119724
1351,510,88,126797,119724
1353,510,88,126795,119716
1355,510,88,126795,119715
1358,510,88,126800,119717
1360,510,88,126800,119717
1363,510,88,126808,119719
1366,510,88,126803,119720
1369,509,88,126804,119719
1371,509,88,126804,119715
1373,510,88,126798,119715
1376,510,88,126804,119721
1378,511,88,126805,119721
1381,512,88,126814,119720
1383,512,88,126814,119720
1386,513,88,126810,119727
1388,512,88,126817,119727
1391,511,88,126811,119728
1393,512,88,126811,119722
1395,512,88,126824,119729
1398,512,88,126830,119738
1638,592,88,127194,119879
1640,612,88,127198,119888
1643,626,88,127200,119899
1645,635,88,127204,119896
1635,547,88,127187,119885
1638,592,88,127194,119879
1640,612,88,127198,119888
1643,626,88,127200,119899
1645,635,88,127204,119896
1638,592,88,127194,119879
1640,612,88,127198,119888
1643,626,88,127200,119899
1645,635,88,127204,119896
1648,640,88,127215,119897
1650,638,88,127216,119902
1652,626,88,127214,119903
1655,605,88,127221,119896
1657,580,88,127222,119899
1660,548,88,127239,119901
1662,506,88,127244,119906
1666,489,88,127249,119913
1668,473,88,127239,119913
1671,461,88,127245,119910
1673,445,88,127238,119915
1675,441,88,127245,119914
1678,441,88,127252,119915
1680,445,88,127266,119915
1683,457,88,127255,119920
1685,464,88,127264,119919
1688,473,88,127265,119918
1690,482,88,127268,119919
1692,485,88,127272,119918
1695,487,88,127276,119919
1697,487,88,127281,119931
1700,488,88,127292,119933
1702,489,88,127279,119938
1705,489,88,127289,119928
1708,490,88,127301,119938
1711,491,88,127303,119938
1713,492,89,127308,119942
1715,493,88,127310,119941
1718,493,88,127315,119946
1720,494,88,127317,119947
1723,494,88,127314,119945
1725,496,88,127309,119942
1728,497,89,127315,119944
1730,498,88,127324,119948
1732,498,88,127315,119950
1735,499,88,127326,119950
1737,499,88,127337,119955
1740,499,89,127342,119955
1742,500,88,127349,119967
1745,502,88,127340,119966
1747,503,88,127354,119968
1751,503,88,127357,119968
1753,503,88,127370,119970
1755,503,88,127367,119972
1758,503,88,127372,119978
1760,504,89,127379,119975
1763,504,88,127384,119975
1765,505,88,127385,119976
1768,505,89,127389,119985
1770,505,88,127390,119985
1772,505,88,127398,119979
1775,506,88,127394,119982
1777,507,88,127396,119972
1780,507,88,127397,119968
1782,507,88,127400,119975
1785,507,89,127397,119977
1787,508,88,127412,119977
1790,508,89,127404,119974
1793,509,88,127403,119977
1795,509,88,127403,119965
1798,509,89,127393,119966
1800,509,88,127394,119962
1803,508,88,127394,119960
1805,508,88,127381,119958
1808,508,89,127369,119958
1810,508,88,127363,119948
1812,508,89,127343,119944
1815,508,89,127323,119936
1817,508,88,127323,119919
1820,508,89,127284,119912
1822,508,89,127254,119896
1825,508,89,127254,119885
1827,507,88,127192,119873
1830,508,89,127165,119873
1832,508,89,127144,119844
1835,508,89,127099,119823
1838,507,89,127069,119818
1840,506,89,127069,119796
1843,506,89,126991,119779
1845,505,89,126963,119764
1848,505,89,126963,119751
1850,506,89,126894,119739
1852,507,89,126859,119739
1855,508,89,126847,119711
1857,508,89,126847,119691
1860,508,89,126813,119688
1862,508,89,126767,119688
1865,508,89,126756,119673
1867,508,89,126736,119658
1870,509,89,126727,119663
1872,510,89,126712,119648
1874,511,89,126694,119648
1878,513,89,126682,119638
1880,513,89,126682,119630
1883,513,89,126667,119628
1885,514,89,126654,119628
1888,513,89,126651,119626
1890,515,89,126642,119617
1892,515,89,126642,119618
1895,515,89,126632,119614
1897,516,89,126631,119614
1900,516,89,126636,119613
1902,515,89,126636,119621
1905,514,89,126626,119624
1907,514,89,126633,119624
1910,513,89,126639,119624
1912,512,89,126634,119624
1914,511,89,126634,119626
1917,510,89,126644,119627
1920,510,89,126638,119627
1923,510,89,126636,119624
1925,510,89,126636,119621
1928,510,89,126636,119619
1930,510,89,126629,119619
1932,509,89,126634,119611
1935,508,89,126642,119615
1937,508,89,126637,119615
1940,508,89,126637,119622
1942,509,89,126641,119614
1945,509,89,126639,119614
1947,509,89,126639,119614
1950,509,89,126645,119607
1952,509,89,126634,119607
1954,509,89,126640,119613
1957,510,89,126646,119620
1959,510,89,126651,119620
1963,511,89,126651,119613
1965,512,89,126647,119618
1968,512,89,126654,119618
1970,512,89,126654,119628
1972,511,89,126669,119632
1975,511,89,126677,119632
1977,510,89,126684,119627
1980,510,89,126684,119637
1982,510,89,126694,119637
1985,511,89,126694,119643
1987,512,89,126703,119651
1990,512,89,126721,119651
1992,511,89,126721,119656
1994,511,89,126732,119669
1997,511,89,126735,119671
1999,512,89,126735,119669
2002,513,89,126743,119676
2004,513,89,126743,119675
2008,514,89,126753,119675
2010,513,89,126777,119679
2012,512,89,126777,119679
2015,512,89,126769,119679
2017,511,89,126780,119682
2020,510,89,126780,119687
2022,511,89,126787,119685
2025,511,89,126795,119685
2027,511,89,126800,119687
2030,510,89,126800,119698
2032,509,89,126817,119695
2034,509,89,126815,119695
2037,508,89,126831,119703
2039,508,89,126838,119709
2042,507,89,126838,119711
2044,507,89,126854,119711
2048,506,89,126862,119720
2050,506,89,126877,119718
2052,506,89,126877,119726
2055,507,89,126880,119728
2057,507,89,126879,119728
2060,506,89,126890,119729
2062,505,89,126882,119732
2065,505,89,126899,119736
2067,505,89,126900,119744
2070,505,89,126908,119744
2072,506,89,126913,119748
2074,508,89,126913,119751
2077,512,89,126919,119748
2079,515,89,126921,119748
2082,516,89,126914,119752
2084,518,89,126929,119748
2087,518,89,126934,119753
2089,517,89,126928,119757
2092,517,89,126930,119752
2095,517,89,126930,119759
2097,519,89,126925,119756
2100,519,89,126933,119756
2102,522,89,126928,119758
2105,523,89,126939,119761
2107,524,89,126951,119763
2110,523,89,126947,119759
2112,520,89,126948,119759
2114,517,89,126950,119761
2117,513,89,126941,119758
2119,509,89,126938,119761
2122,508,89,126939,119761
2124,507,89,126944,119757
2127,505,89,126954,119764
2129,501,89,126953,119768
2131,498,89,126953,119767
2135,496,89,126968,119761
2137,495,89,126970,119773
2140,494,89,126974,119775
2142,494,89,126975,119779
2145,493,89,126986,119782
2147,494,89,126980,119780
2150,493,89,127000,119789
2152,492,89,126988,119792
2154,492,89,126986,119793
2157,493,89,126998,119792
2159,493,89,127001,119789
2162,494,89,127015,119799
2164,495,89,127012,119799
2167,494,89,127025,119809
2169,493,89,127020,119801
2171,492,89,127024,119810
2174,492,89,127019,119808
2177,492,89,127029,119818
2180,492,89,127031,119816
2182,493,89,127047,119816
2185,494,89,127049,119824
2187,495,89,127060,119818
2190,495,89,127062,119829
2192,496,89,127056,119821
2194,496,89,127062,119818
2197,497,89,127060,119828
2199,497,89,127064,119838
2202,497,89,127082,119835
2204,497,89,127088,119832
2207,496,89,127082,119841
2209,493,89,127098,119840
2211,491,89,127099,119848
2214,490,89,127098,119849
2216,491,89,127111,119849
2220,493,89,127108,119853
2222,501,89,127113,119847
2225,509,89,127132,119860
2227,522,89,127130,119859
2230,540,89,127129,119858
2232,584,89,127132,119863
2234,603,89,127139,119864
2237,618,89,127149,119869
2239,632,89,127147,119855
2242,639,89,127152,119871
2244,640,89,127163,119881
2247,633,89,127165,119875
2249,601,89,127169,119879
2251,575,89,127174,119875
2254,553,89,127179,119888
2256,523,89,127168,119884
2259,487,89,127180,119888
2262,471,89,127192,119888
2265,461,89,127187,119888
2267,451,89,127193,119890
2270,443,89,127189,119890
2272,441,89,127200,119899
2274,446,89,127202,119888
2277,453,89,127213,119907
2279,462,89,127205,119909
2282,470,89,127219,119905
2284,480,89,127231,119914
2287,483,89,127230,119913
2289,486,89,127236,119920
2291,488,89,127246,119925
2294,489,89,127250,119928
2296,490,89,127250,119936
2299,491,89,127254,119933
2301,491,89,127260,119922
2305,492,89,127262,119933
2307,493,89,127268,119932
2310,494,89,127275,119931
2312,496,89,127286,119934
2314,496,89,127276,119934
2317,496,89,127286,119937
2319,497,89,127291,119936
2322,497,89,127291,119939
2324,498,89,127287,119936
2327,498,89,127295,119936
2329,499,89,127307,119944
2331,500,89,127311,119941
2334,501,89,127297,119941
2336,501,89,127297,119944
2339,502,89,127308,119946
2341,502,89,127310,119945
2344,503,89,127310,119952
2347,503,89,127316,119951
2350,504,89,127327,119951
2352,505,89,127325,119960
2354,506,89,127335,119955
2357,505,89,127340,119961
2359,505,89,127340,119968
2362,504,89,127349,119964
2364,505,89,127351,119964
2367,505,89,127358,119985
2369,506,89,127363,119979
2371,506,89,127363,119979
2374,507,89,127373,119980
2376,508,89,127373,119980
2379,508,89,127373,119991
2381,508,89,127373,119989
2384,507,89,127386,119988
2386,508,89,127377,119988
2390,508,89,127388,119984
2392,508,89,127382,119984
2394,507,89,127382,119983
2397,508,89,127364,119977
2399,508,89,127355,119977
2402,509,89,127357,119977
2404,509,89,127357,119962
2407,509,89,127339,119956
2409,509,89,127309,119956
2411,509,89,127292,119947
2414,508,89,127270,119925
2416,508,89,127270,119912
2419,508,89,127208,119901
2421,507,89,127175,119901
2424,507,89,127146,119885
2426,507,89,127146,119849
2429,507,89,127121,119840
2432,507,89,127044,119840
2434,507,89,127014,119827
2437,506,89,126976,119786
2439,507,89,126946,119786
2442,508,89,126904,119762
2444,508,89,126904,119753
2447,508,89,126885,119737
2449,507,89,126820,119724
2451,507,89,126820,119717
2454,507,89,126767,119717
2456,508,89,126765,119705
2459,508,89,126744,119678
2461,508,89,126744,119664
2464,508,89,126693,119664
2466,508,89,126693,119650
2469,509,89,126681,119639
2471,511,89,126641,119639
2473,511,89,126635,119635
2477,512,89,126611,119609
2479,512,89,126600,119609
2482,513,89,126600,119598
2484,514,89,126595,119596
2487,514,89,126569,119596
2489,514,89,126569,119588
2491,513,89,126560,119584
2494,513,89,126552,119584
2496,513,89,126549,119578
2499,513,89,126549,119573
2501,513,89,126541,119573
2504,513,89,126541,119571
2506,513,89,126532,119571
2509,513,89,126525,119571
2511,512,89,126525,119558
2513,512,89,126522,119559
2516,511,89,126514,119560
2519,510,89,126514,119563
2522,509,89,126517,119564
2524,509,89,126515,119559
2527,509,89,126519,119559
2529,508,89,126528,119573
2531,508,89,126528,119561
2534,508,89,126518,119561
2536,509,89,126525,119567
2539,509,89,126525,119566
2541,510,89,126524,119560
2544,510,89,126520,119560
2546,510,89,126522,119567
2549,510,89,126522,119570
2551,510,89,126539,119570
2553,511,89,126531,119570
2556,511,89,126539,119565
2558,511,89,126546,119580
2562,511,89,126546,119574
2564,511,89,126551,119578
2567,512,89,126553,119576
2569,511,89,126566,119582
2571,511,89,126566,119578
2574,511,89,126559,119583
2576,512,89,126560,119583
2579,512,89,126570,119589
2581,512,89,126573,119593
2584,512,89,126585,119593
2586,513,89,126584,119598
2589,513,89,126598,119601
2591,513,89,126598,119608
2593,514,89,126618,119608
2596,514,89,126615,119611
2598,514,89,126624,119610
2601,513,89,126634,119613
2604,512,89,126655,119615
2607,511,89,126642,119623
2609,510,89,126653,119620
2611,510,89,126656,119629
2614,510,89,126669,119633
2616,511,89,126667,119637
2619,511,89,126678,119643
2621,510,89,126690,119638
2624,510,89,126710,119641
2626,509,89,126707,119647
2629,508,89,126708,119655
2631,508,89,126720,119652
2633,508,89,126720,119660
2636,508,89,126723,119660
2638,509,89,126734,119668
2641,509,89,126742,119676
2643,508,89,126753,119680
2647,508,89,126763,119681
2649,507,89,126758,119692
2651,507,89,126784,119689
2654,506,89,126786,119695
2656,505,89,126783,119691
2659,505,89,126784,119692
2661,505,89,126792,119695
2664,506,89,126801,119690
2666,507,89,126801,119705
2669,509,89,126797,119710
2671,511,89,126805,119701
2673,513,89,126803,119700
2676,515,89,126805,119708
2678,518,89,126805,119714
2681,518,89,126825,119713
2683,518,89,126820,119714
2686,518,89,126826,119729
2689,518,89,126834,119725
2691,519,89,126838,119730
2694,521,89,126835,119725
2696,522,89,126836,119728
2699,523,89,126834,119723
2701,524,89,126852,119722
2704,523,89,126850,119725
2706,519,89,126851,119732
2709,516,88,126839,119732
2711,514,89,126859,119730
2713,511,89,126858,119733
2716,509,89,126854,119740
2718,507,89,126853,119744
2721,505,89,126862,119741
2723,503,89,126855,119741
2726,500,89,126856,119742
2728,499,89,126860,119748
2731,499,89,126863,119749
2734,497,89,126867,119758
2736,496,88,126871,119761
2739,495,89,126879,119764
2741,493,88,126875,119761
2744,493,89,126882,119763
2746,492,89,126884,119763
2749,493,88,126895,119770
2751,493,89,126898,119789
2753,493,88,126906,119783
2756,493,88,126907,119790
2758,493,89,126912,119791
2761,493,89,126919,119795
2763,493,89,126919,119792
2766,493,88,126932,119801
2768,494,89,126936,119803
2770,495,88,126941,119804
2774,495,89,126954,119811
2776,495,89,126955,119817
2779,495,89,126953,119792
2781,495,88,126968,119824
2784,495,89,126968,119822
2786,496,89,126974,119815
2789,497,89,126972,119826
2791,498,89,126987,119835
2793,499,89,126984,119836
2796,498,89,126996,119837
2798,497,88,126994,119832
2801,494,89,126988,119845
2803,492,88,127010,119839
2806,490,89,127004,119847
2808,490,88,127023,119854
2810,491,88,127029,119854
2813,497,88,127027,119862
2816,503,89,127032,119857
2819,511,89,127048,119864
2821,528,88,127050,119871
2824,545,89,127057,119873
2826,588,88,127080,119877
2829,609,89,127074,119887
2831,622,89,127089,119888
2833,632,89,127089,119888
2836,638,89,127102,119899
2838,635,89,127106,119899
2841,624,89,127106,119907
2843,600,89,127125,119917
2846,579,89,127135,119917
2848,529,89,127155,119936
2850,512,89,127157,119933
2853,482,89,127160,119937
2855,469,89,127160,119948
2859,456,89,127181,119946
2861,446,89,127181,119947
2864,443,88,127181,119952
2866,442,88,127184,119954
2869,446,89,127203,119954
2871,460,89,127209,119973
2873,465,89,127218,119974
2876,476,88,127224,119972
2878,479,88,127224,119968
2881,483,88,127234,119969
2883,486,88,127233,119980
2886,487,88,127233,119979
2888,489,88,127247,119989
2890,490,88,127259,119989
2893,491,88,127267,119993
2895,491,88,127267,119998
2898,491,88,127271,120002
2900,492,88,127284,120002
2904,493,89,127296,119999
2906,495,88,127299,120010
2909,496,89,127301,120016
2911,498,89,127308,120014
2913,499,88,127314,120014
2916,499,88,127314,120020
2918,499,88,127314,120027
2921,500,88,127321,120022
2923,501,88,127319,120022
2926,501,89,127341,120028
2928,502,88,127340,120039
2930,502,88,127340,120040
2933,503,88,127345,120043
2935,503,88,127348,120043
2938,504,88,127362,120051
2940,504,88,127362,120062
2944,505,88,127367,120054
2946,506,88,127386,120054
2949,506,88,127393,120056
2951,507,88,127399,120072
2953,506,88,127399,120074
2956,506,88,127406,120076
2958,506,88,127414,120076
2961,506,88,127421,120084
2963,506,88,127421,120086
2966,507,88,127435,120091
2968,508,88,127432,120091
2970,508,88,127453,120097
2973,508,88,127452,120102
2975,508,88,127455,120102
2978,509,88,127455,120098
2980,509,88,127460,120106
2983,510,88,127458,120106
2985,509,88,127458,120098
2989,509,88,127457,120102
2991,509,88,127448,120102
2993,509,88,127447,120098
2996,509,88,127438,120091
2998,509,88,127425,120091
3001,509,88,127425,120074
3003,509,88,127416,120069
3006,510,88,127371,120069
3008,509,88,127371,120057
3010,510,88,127369,120046
3013,509,88,127321,120046
3015,509,88,127294,120043
3018,507,88,127294,120013
3020,507,88,127238,120013
3023,506,88,127238,119986
3025,505,88,127201,119972
3028,505,88,127138,119972
3031,506,88,127138,119945
3033,506,88,127113,119927
3036,506,88,127043,119922
3038,506,88,127043,119902
3041,506,88,127008,119889
3043,506,88,126977,119871
3046,506,88,126945,119871
3048,505,88,126903,119860
3050,506,88,126903,119834
3053,506,88,126841,119834
3055,507,88,126828,119828
3058,509,88,126828,119812
3060,510,88,126811,119812
3063,511,88,126780,119799
3065,512,88,126768,119798
3068,513,88,126768,119781
3070,513,88,126754,119774
3073,514,88,126737,119774
3076,514,88,126727,119772
3078,514,88,126727,119771
3081,514,88,126723,119763
3083,514,87,126722,119763
3086,515,87,126706,119762
3088,515,88,126708,119757
3090,516,88,126708,119758
3093,516,88,126707,119754
3095,516,87,126699,119754
3098,516,87,126703,119759
3100,516,87,126693,119753
3103,515,88,126699,119753
3105,513,87,126696,119750
3108,512,88,126700,119745
3110,512,88,126700,119745
3112,511,87,126693,119745
3116,510,87,126699,119744
3118,510,87,126695,119738
3121,509,87,126692,119741
3123,508,87,126711,119737
3126,509,88,126698,119741
3128,509,87,126698,119752
3130,508,88,126705,119748
3133,509,87,126709,119750
3135,509,87,126710,119757
3138,509,87,126709,119756
3140,509,87,126717,119748
3143,510,87,126723,119753
3145,511,87,126742,119758
3148,511,87,126742,119768
3150,511,87,126738,119766
3152,511,87,126745,119770
3155,511,87,126749,119779
3158,511,87,126753,119779
3161,511,87,126761,119784
3163,512,87,126774,119788
3166,512,87,126781,119791
3168,513,87,126782,119791
3170,513,87,126807,119804
3173,513,87,126802,119799
3175,513,87,126812,119804
3178,513,87,126809,119800
3180,513,87,126824,119808
3183,512,87,126830,119819
3185,512,87,126839,119817
3188,512,87,126842,119825
3190,512,87,126849,119821
3192,512,87,126855,119825
3195,511,87,126849,119826
3197,511,87,126863,119833
3201,510,87,126879,119839
3203,510,87,126891,119841
3206,510,87,126890,119842
3208,510,87,126908,119852
3210,510,87,126916,119856
3213,510,87,126915,119859
3215,510,87,126937,119863
3218,510,87,126939,119865
3220,509,87,126952,119866
3223,509,87,126961,119870
3225,508,87,126962,119876
3228,508,87,126955,119876
3230,508,87,126973,119879
3232,508,87,126987,119886
3235,507,87,126992,119882
3237,507,87,127000,119889
3240,507,87,126997,119889
3243,507,87,127011,119895
3246,507,87,127010,119907
3248,506,87,127017,119900
3250,507,87,127027,119904
3253,509,87,127020,119917
3255,510,87,127022,119912
3258,511,87,127037,119913
3260,513,87,127039,119914
3263,516,87,127044,119919
3265,518,87,127041,119924
3268,519,87,127045,119919
3270,518,87,127052,119928
3272,518,87,127057,119923
3275,518,87,127062,119934
3277,519,87,127064,119934
3280,521,87,127061,119935
3282,523,87,127061,119935
3286,524,87,127074,119934
3288,523,87,127073,119939
3290,522,87,127077,119936
3293,519,87,127075,119938
3295,516,87,127072,119938
3298,512,87,127077,119943
3300,511,87,127085,119947
3303,510,87,127080,119948
3305,508,87,127091,119952
3308,504,87,127094,119950
3310,500,87,127105,119957
3312,498,87,127095,119951
3315,496,87,127100,119954
3317,495,87,127090,119944
3320,496,87,127096,119953
3322,496,87,127103,119952
3325,496,87,127100,119952
3328,495,87,127109,119955
3330,494,87,127109,119952
3333,494,87,127101,119956
3335,494,87,127108,119953
3338,493,87,127108,119953
3340,493,87,127109,119951
3343,494,87,127105,119950
3345,494,87,127124,119951
3348,494,87,127116,119953
3350,494,87,127116,119950
3352,494,87,127115,119950
3355,495,87,127122,119953
3357,495,87,127116,119950
3360,495,87,127116,119952
3362,496,87,127122,119949
3365,497,87,127120,119949
3367,498,87,127135,119958
3369,498,87,127134,119955
3373,498,87,127143,119966
3375,499,87,127143,119966
3378,498,87,127148,119967
3380,498,87,127151,119972
3383,497,87,127151,119967
3385,496,87,127162,119971
3388,494,87,127163,119971
3390,492,87,127175,119982
3392,491,87,127180,119982
3395,494,87,127188,119979
3397,497,87,127188,119979
3400,503,87,127186,119982
3402,516,87,127193,119987
3405,528,87,127193,119988
3407,550,87,127199,119989
3409,569,87,127211,119989
3412,610,87,127214,120002
3415,621,87,127214,119996
3418,631,87,127226,119993
3420,635,87,127229,119993
3423,637,87,127225,120003
3425,627,87,127233,120001
3428,615,87,127231,120019
3430,576,87,127234,120012
3432,559,87,127241,120012
3435,512,87,127249,120009
3437,495,87,127249,120012
3440,475,87,127247,120011
3442,465,87,127243,120011
3445,455,87,127267,120018
3447,441,87,127253,120014
3449,439,87,127253,120018
3452,440,87,127271,120022
3454,445,87,127278,120022
3458,452,87,127282,120032
3460,466,87,127282,120038
3463,474,86,127294,120041
3465,479,87,127305,120041
3468,482,87,127302,120042
3470,487,87,127308,120050
3472,489,87,127308,120054
3475,491,87,127321,120053
3477,492,87,127328,120053
3480,493,87,127335,120062
3482,494,87,127335,120062
3485,494,87,127349,120069
3487,494,86,127357,120069
3489,494,87,127373,120080
3492,495,86,127371,120088
3494,496,87,127379,120088
3497,496,86,127379,120080
3500,498,87,127381,120094
3503,499,87,127392,120094
3505,500,86,127392,120096
3508,501,86,127400,120100
3510,502,87,127403,120100
3512,502,87,127415,120099
3515,502,87,127417,120099
3517,503,87,127419,120099
3520,503,86,127419,120106
3522,503,86,127417,120104
3525,503,86,127430,120104
3527,503,87,127430,120111
3529,503,86,127431,120114
3532,503,87,127438,120114
3534,503,87,127454,120118
3537,505,86,127454,120114
3539,505,87,127446,120114
3543,506,86,127446,120113
3545,506,87,127446,120115
3548,507,87,127452,120115
3550,507,86,127452,120114
3552,507,86,127458,120120
3555,508,87,127452,120123
3557,509,87,127452,120129
3560,510,87,127466,120133
3562,511,86,127464,120132
3565,511,86,127470,120132
3567,511,87,127481,120138
3569,510,86,127481,120149
3572,510,86,127484,120149
3574,509,87,127482,120153
3577,510,86,127482,120135
3579,510,87,127482,120139
3582,510,86,127476,120139
3585,509,86,127459,120128
3588,508,86,127459,120122
3590,508,86,127428,120122
3592,508,86,127428,120103
3595,506,86,127409,120098
3597,506,86,127388,120089
3600,506,86,127350,120071
3602,506,86,127331,120065
3605,506,86,127297,120065
3607,506,86,127272,120045
3609,506,86,127243,120025
3612,505,86,127214,120022
3614,505,86,127181,119994
3617,504,86,127106,119987
3619,504,86,127106,119945
3622,504,86,127064,119929
3624,504,86,127033,119929
3628,504,86,126995,119911
3630,504,86,126965,119901
3632,504,86,126927,119881
3635,505,86,126908,119869
3637,507,86,126876,119851
3640,507,86,126831,119840
3642,508,86,126806,119836
3645,509,86,126806,119817
3647,510,86,126789,119817
3649,511,86,126767,119808
3652,512,86,126747,119797
3654,513,86,126742,119784
3657,514,86,126729,119779
3659,516,86,126716,119782
3662,516,86,126711,119780
3664,517,86,126715,119779
3667,517,86,126718,119776
3670,516,86,126714,119771
3672,516,86,126710,119777
3675,516,86,126702,119781
3677,515,86,126703,119776
3680,515,86,126704,119775
3682,515,86,126705,119776
3685,515,86,126704,119776
3687,515,86,126705,119782
3689,515,86,126714,119777
3692,514,86,126714,119788
3694,513,86,126711,119784
3697,511,86,126709,119784
3699,511,86,126726,119783
3702,511,86,126722,119790
3704,511,86,126722,119783
3707,511,86,126728,119786
3709,511,86,126726,119786
3712,510,86,126729,119791
3715,511,86,126736,119787
3717,510,86,126734,119789
3720,510,86,126746,119787
3722,510,86,126749,119790
3725,509,86,126740,119793
3727,509,86,126739,119794
3729,509,86,126738,119786
3732,509,86,126744,119800
3734,510,86,126745,119794
3737,510,86,126746,119797
3739,510,86,126761,119793
3742,509,86,126768,119798
3744,510,85,126774,119793
3747,510,86,126768,119794
3749,510,85,126776,119808
3751,511,86,126793,119800
3755,512,85,126791,119812
3757,513,85,126798,119824
3760,513,85,126810,119824
3762,513,86,126817,119820
3765,514,86,126828,119836
3767,514,86,126835,119839
3769,514,85,126838,119838
3772,513,85,126846,119841
3774,513,85,126854,119847
3777,513,85,126866,119859
3779,513,85,126874,119850
3782,513,85,126883,119857
3784,513,86,126895,119861
3787,513,86,126899,119862
3789,513,85,126910,119870
3791,513,85,126918,119872
3794,513,85,126924,119874
3796,511,85,126927,119879
3800,510,85,126941,119881
3802,509,85,126945,119883
3805,509,85,126952,119892
3807,508,85,126960,119895
3809,508,85,126967,119896
3812,508,85,126970,119901
3814,508,85,126978,119894
3817,508,85,126980,119901
3819,509,85,126991,119904
3822,510,85,126996,119906
3824,513,85,126995,119911
3827,514,85,126995,119902
3829,515,85,126989,119902
3831,516,85,126994,119904
3834,517,85,126995,119903
3836,518,85,127000,119906
3840,518,85,126996,119907
3842,518,85,126998,119885
3845,519,85,127000,119903
3847,520,85,127003,119903
3849,522,85,127009,119901
3852,523,85,127015,119903
3854,524,85,127004,119901
3857,523,85,127007,119902
3859,521,85,127012,119898
3862,519,85,127012,119905
3864,515,85,127015,119911
3867,513,85,127025,119911
3869,510,85,127031,119910
3871,510,85,127029,119907
3874,508,85,127030,119905
3876,506,85,127033,119906
3879,504,85,127031,119917
3881,500,85,127037,119914
3885,499,85,127037,119919
3887,497,85,127037,119916
3889,497,85,127033,119916
3892,496,85,127055,119915
3894,496,85,127049,119920
3897,495,85,127046,119918
3899,494,85,127046,119917
3902,494,85,127050,119925
3904,493,85,127051,119923
3907,493,85,127051,119921
3909,493,85,127048,119921
3911,494,85,127061,119921
3914,494,85,127060,119928
3916,494,85,127060,119925
3919,493,85,127053,119924
3921,494,85,127051,119924
3924,494,85,127059,119921
3927,496,84,127062,119923
3929,496,85,127062,119928
3932,497,84,127063,119925
3934,497,85,127058,119925
3937,497,85,127075,119936
3939,497,84,127075,119931
3942,497,84,127076,119932
3944,497,84,127076,119932
3947,497,85,127088,119931
3949,496,84,127083,119931
3951,496,84,127083,119940
3954,495,85,127090,119939
3956,494,84,127097,119939
3959,493,84,127105,119940
3961,493,85,127104,119938
3964,493,84,127104,119943
3966,495,84,127104,119940
3969,500,84,127111,119939
3972,508,84,127115,119941
3974,516,84,127114,119941
3977,552,84,127117,119943
3979,571,84,127117,119946
3982,598,84,127126,119946
3984,614,84,127128,119946
3987,626,84,127127,119948
3989,635,84,127127,119950
3991,636,84,127135,119954
3994,627,85,127138,119951
3996,609,84,127138,119950
3999,583,84,127144,119962
4001,563,84,127148,119962
4004,524,84,127148,119957
4006,508,84,127156,119957
4008,488,84,127163,119966
4012,464,84,127163,119958
4014,454,84,127164,119961
4017,448,84,127175,119961
4019,442,84,127190,119963
4022,439,84,127186,119978
4024,444,84,127186,119976
4027,453,84,127192,119974
4029,461,84,127208,119974
4031,468,84,127212,119980
4034,479,84,127212,119990
4036,483,84,127209,119994
4039,485,84,127225,119994
4041,487,84,127234,119998
4044,489,84,127234,119995
4046,490,84,127245,119995
4048,491,84,127247,120002
4051,491,84,127247,120010
4054,491,84,127254,120004
4057,492,84,127263,120004
4059,493,84,127273,120011
4062,495,84,127273,120015
4064,496,84,127273,120026
4067,497,84,127280,120026
4069,498,84,127280,120021
4071,499,84,127288,120019
4074,500,84,127301,120019
4076,500,84,127301,120027
4079,501,84,127306,120039
4081,501,84,127311,120040
4084,501,84,127309,120040
4086,502,84,127324,120039
4088,502,84,127324,120044
4091,502,84,127325,120044
4093,502,84,127325,120039
4097,503,84,127326,120049
4099,504,84,127340,120051
4102,504,84,127340,120051
4104,504,84,127346,120053
4107,505,84,127346,120053
4109,505,84,127359,120053
4111,505,84,127359,120065
4114,505,84,127363,120064
4116,505,84,127366,120064
4119,505,84,127368,120069
4121,505,84,127376,120073
4124,505,84,127378,120073
4126,505,84,127380,120081
4128,506,84,127384,120078
4131,506,84,127392,120076
4133,507,84,127401,120083
4136,507,84,127412,120091
4139,507,84,127412,120086
4142,507,84,127409,120086
4144,507,84,127412,120082
4147,508,84,127412,120090
4149,508,84,127395,120085
4151,508,84,127389,120079
4154,508,84,127388,120073
4156,508,84,127381,120073
4159,508,84,127377,120067
4161,507,83,127349,120059
4164,506,84,127333,120055
4166,505,84,127298,120037
4168,505,83,127279,120028
4171,504,84,127256,120006
4173,502,83,127217,119993
4176,502,83,127194,119981
4178,502,83,127172,119973
4182,502,83,127137,119957
4184,503,83,127098,119938
4187,503,84,127059,119920
4189,503,84,127028,119905
4191,502,83,126987,119886
4194,502,83,126950,119874
4196,502,83,126924,119862
4199,503,83,126892,119852
4201,503,83,126869,119829
4204,503,83,126853,119828
4206,504,83,126826,119808
4208,505,83,126806,119798
4211,507,83,126791,119795
4213,508,83,126778,119792
4216,509,83,126749,119775
4218,509,83,126737,119777
4221,511,83,126727,119769
4224,512,83,126719,119764
4227,513,83,126701,119761
4229,514,83,126702,119754
4231,514,83,126687,119750
4234,515,83,126683,119746
4236,516,83,126686,119746
4239,515,83,126673,119739
4241,515,83,126664,119743
4244,514,83,126659,119748
4246,514,83,126659,119744
4248,514,83,126657,119740
4251,513,83,126651,119737
4253,513,83,126655,119741
4256,514,83,126661,119739
4258,514,83,126670,119733
4261,514,83,126663,119740
4263,512,83,126670,119732
4267,511,83,126660,119736
4269,511,83,126671,119739
4271,511,83,126679,119740
4274,511,83,126673,119747
4276,511,83,126684,119747
4279,511,83,126694,119749
4281,511,83,126697,119750
4284,511,83,126684,119754
4286,510,83,126694,119754
4288,510,83,126694,119759
4291,509,83,126700,119751
4293,509,83,126701,119753
4296,510,83,126709,119758
4298,510,83,126708,119761
4301,511,83,126708,119759
4303,512,83,126706,119765
4306,512,83,126719,119763
4308,512,83,126725,119766
4311,512,83,126728,119762
4314,512,83,126722,119769
4316,513,83,126721,119770
4319,513,83,126734,119765
4321,514,83,126729,119768
4324,514,83,126732,119770
4326,514,83,126739,119776
4328,514,83,126751,119771
4331,512,83,126746,119772
4333,512,83,126761,119773
4336,511,83,126768,119782
4338,512,83,126770,119780
4341,512,83,126767,119783
4343,513,83,126783,119788
4346,514,83,126795,119783
4348,513,83,126799,119789
4350,512,83,126806,119796
4354,512,83,126817,119802
4356,512,83,126839,119804
4359,512,83,126839,119816
4361,512,83,126839,119808
4364,511,83,126861,119820
4366,511,83,126856,119820
4368,511,83,126861,119825
4371,511,83,126880,119834
4373,511,83,126877,119832
4376,511,83,126882,119841
4378,512,83,126894,119835
4381,512,83,126894,119840
4383,514,83,126905,119842
4386,516,83,126908,119842
4388,517,83,126924,119839
4390,518,83,126915,119835
4393,518,83,126924,119837
4396,519,83,126925,119844
4399,519,83,126927,119845
4401,519,83,126935,119845
4404,520,83,126935,119847
4406,521,82,126940,119855
4408,522,83,126937,119855
4411,524,83,126959,119863
4413,524,83,126950,119853
4416,523,83,126955,119854
4418,521,83,126955,119857
4421,518,83,126954,119857
4423,513,83,126951,119862
4426,511,83,126951,119864
4428,509,83,126959,119863
4430,508,83,126970,119863
4433,505,83,126965,119872
4435,503,83,126965,119868
4439,500,83,126971,119870
4441,498,83,126965,119870
4444,497,83,126967,119864
4446,495,83,126973,119866
4448,495,83,126973,119869
4451,495,83,126967,119863
4453,495,83,126965,119863
4456,494,83,126978,119871
4458,494,83,126978,119866
4461,493,82,126979,119870
4463,493,83,126978,119870
4466,493,83,126990,119881
4468,493,83,126991,119871
4470,493,82,126991,119874
4473,493,83,126986,119877
4475,493,83,126986,119877
4478,493,83,126999,119876
4481,495,82,126993,119880
4484,495,83,127002,119882
4486,495,82,127002,119887
4488,496,82,127002,119888
4491,496,82,127015,119885
4493,496,83,127016,119885
4496,496,83,127019,119886
4498,495,82,127019,119889
4501,496,82,127022,119889
4503,497,82,127022,119897
4506,497,82,127031,119896
4508,498,82,127035,119896
4510,497,82,127043,119896
4513,496,83,127045,119892
4515,495,83,127044,119892
4518,493,82,127044,119894
4520,492,82,127050,119894
4524,492,82,127056,119894
4526,493,82,127056,119902
4528,497,82,127057,119908
4531,502,82,127066,119908
4533,509,82,127079,119913
4536,534,82,127077,119925
4538,548,82,127086,119925
4541,587,82,127086,119915
4543,609,82,127094,119923
4546,621,83,127097,119923
4548,630,82,127097,119926
4550,633,82,127104,119928
4553,633,82,127106,119928
4555,628,83,127129,119924
4558,597,83,127129,119939
4560,580,82,127129,119939
4563,537,82,127129,119937
4566,510,83,127101,119945
4568,493,83,127145,119945
4571,471,83,127145,119944
4573,457,82,127155,119958
4576,450,82,127161,119958
4578,443,82,127171,119959
4581,436,83,127171,119966
4583,437,82,127172,119966
4586,448,82,127172,119966
4588,458,82,127174,119976
4590,466,82,127180,119976
4593,473,82,127194,119975
4595,477,82,127205,119974
4598,482,82,127205,119986
4600,484,82,127212,119986
4603,485,82,127208,119986
4605,486,82,127217,119992
4608,487,82,127217,119992
4611,490,82,127229,119996
4613,491,82,127234,119996
4616,492,82,127236,119998
4618,492,82,127236,120003
4621,494,82,127241,119998
4623,495,82,127247,119998
4626,496,82,127252,120002
4628,496,82,127252,120006
4630,497,82,127261,120006
4633,497,82,127262,120011
4635,498,82,127262,120008
4638,498,82,127272,120011
4640,500,82,127298,120014
4643,501,82,127280,120010
4645,502,82,127272,120015
4647,503,82,127279,120003
4651,503,82,127288,120019
4653,502,82,127289,120024
4656,501,82,127302,120021
4658,501,82,127302,120030
4661,501,82,127304,120030
4663,502,82,127306,120020
4666,503,82,127316,120027
4668,503,82,127318,120036
4670,504,82,127323,120038
4673,504,82,127329,120031
4675,504,82,127323,120034
4678,504,82,127333,120036
4680,505,82,127339,120039
4683,505,82,127342,120039
4685,506,82,127337,120042
4687,507,82,127345,120037
4690,508,82,127350,120044
4692,508,82,127358,120052
4696,508,82,127356,120048
4698,508,82,127369,120051
4701,507,82,127357,120051
4703,507,82,127358,120048
4706,507,82,127363,120045
4708,506,82,127362,120040
4710,506,82,127346,120044
4713,505,82,127332,120039
4715,505,82,127324,120031
4718,505,82,127310,120019
4720,505,82,127298,120019
4723,505,82,127279,120007
4725,504,82,127254,119991
4727,504,82,127226,119982
4730,503,82,127208,119968
4732,502,82,127171,119957
4736,502,82,127134,119936
4738,501,82,127096,119928
4741,501,82,127069,119911
4743,502,82,127031,119899
4746,502,81,126998,119883
4748,502,82,126964,119862
4750,502,82,126932,119848
4753,502,82,126900,119837
4755,502,82,126868,119813
4758,502,82,126834,119796
4760,502,81,126805,119787
4763,503,81,126780,119776
4765,504,81,126743,119762
4767,505,81,126726,119751
4770,506,81,126701,119731
4772,506,81,126677,119724
4775,508,82,126666,119720
4777,509,82,126662,119714
4781,511,81,126647,119707
4783,512,81,126628,119698
4786,513,81,126617,119692
4788,513,82,126605,119690
4790,513,82,126604,119689
4793,513,81,126583,119683
4795,513,81,126581,119677
4798,514,81,126568,119674
4800,514,81,126564,119673
4803,515,81,126573,119672
4805,514,81,126564,119671
4807,514,82,126563,119674
4810,515,81,126557,119663
4812,515,81,126559,119667
4815,514,81,126566,119667
4817,513,81,126562,119667
4820,513,81,126562,119662
4823,511,81,126565,119669
4826,510,82,126568,119674
4828,510,81,126571,119678
4830,510,81,126568,119672
4833,510,81,126561,119677
4835,510,81,126566,119670
4838,510,81,126571,119672
4840,509,81,126571,119673
4843,509,81,126569,119666
4845,508,81,126576,119677
4847,509,81,126586,119666
4850,509,81,126579,119672
4852,509,81,126570,119671
4855,510,81,126580,119670
4857,510,81,126590,119667
4860,510,81,126591,119674
4862,510,81,126574,119673
4866,510,81,126581,119672
4868,510,81,126597,119674
4870,510,81,126593,119674
4873,510,81,126597,119668
4875,511,81,126594,119673
4878,511,81,126596,119671
4880,512,81,126596,119673
4883,512,81,126596,119677
4885,512,81,126607,119680
4887,513,81,126608,119680
4890,513,81,126616,119682
4892,513,82,126624,119682
4895,513,81,126632,119683
4897,512,81,126626,119685
4900,511,81,126638,119688
4902,512,81,126647,119685
4905,512,81,126647,119695
4908,512,81,126655,119693
4910,513,81,126670,119693
4913,512,81,126683,119709
4915,512,81,126688,119708
4918,512,81,126688,119709
4920,511,81,126691,119716
4923,511,81,126714,119716
4925,511,81,126718,119725
4927,510,81,126718,119726
4930,511,81,126738,119734
4932,511,81,126742,119734
4935,510,81,126758,119747
4937,510,81,126767,119746
4940,510,81,126767,119747
4942,509,81,126778,119755
4945,509,81,126793,119755
4947,508,81,126800,119771
4950,508,81,126800,119759
4953,508,81,126802,119768
4955,508,81,126808,119768
4958,509,81,126818,119761
4960,512,81,126816,119765
4963,513,81,126820,119778
4965,517,81,126820,119769
4967,518,81,126821,119771
4970,519,81,126822,119772
4972,519,81,126826,119772
4975,519,81,126828,119764
4977,519,81,126828,119772
4980,520,81,126834,119776
4982,521,81,126826,119776
4985,522,81,126842,119769
4987,523,81,126841,119764
4989,523,81,126841,119774
4993,521,81,126843,119776
4995,519,81,126843,119780
4998,516,81,126849,119778
5000,514,81,126847,119778
5003,512,81,126861,119779
5005,510,81,126861,119782
5007,508,81,126862,119784
5010,505,81,126862,119782
5012,503,81,126865,119782
5015,499,81,126865,119787
5017,497,81,126873,119787
5020,495,81,126875,119793
5022,494,81,126875,119797
5025,494,81,126872,119797
5027,494,81,126879,119797
5029,494,81,126894,119798
5032,493,81,126884,119798
5035,492,81,126886,119798
5038,492,81,126886,119806
5040,492,81,126890,119811
5043,493,81,126896,119811
5045,493,81,126896,119804
5047,494,81,126900,119809
5050,495,81,126909,119809
5052,495,81,126906,119810
5055,495,81,126919,119811
5057,495,81,126908,119811
5060,495,81,126908,119815
5062,495,81,126915,119815
5065,495,81,126915,119815
5067,495,81,126915,119817
5069,496,81,126934,119823
5072,496,81,126931,119823
5074,497,81,126936,119821
5078,497,81,126936,119822
5080,496,81,126937,119824
5083,496,81,126946,119824
5085,496,81,126959,119828
5087,496,81,126959,119833
5090,496,81,126968,119833
5092,494,81,126972,119842
5095,492,81,126972,119839
5097,491,81,126969,119847
5100,492,81,126983,119847
5102,494,81,126989,119850
5105,503,81,126989,119850
5107,514,81,126994,119853
5109,526,81,127002,119853
5112,545,81,127014,119848
5114,568,81,127016,119861
5117,608,81,127016,119864
5120,625,81,127028,119868
5123,633,81,127027,119868
5125,637,81,127028,119867
5127,639,81,127028,119872
5130,623,81,127040,119869
5132,606,81,127043,119869
5135,581,81,127040,119878
5137,554,81,127050,119877
5140,532,81,127058,119875
5142,491,81,127066,119874
5145,475,81,127058,119876
5147,463,81,127060,119877
5149,452,81,127060,119874
5152,441,81,127067,119873
5154,441,81,127067,119873
5157,444,81,127072,119881
5159,450,81,127073,119886
5163,457,81,127084,119889
5165,467,81,127091,119893
5167,474,81,127090,119893
5170,479,81,127098,119891
5172,484,81,127102,119894
5175,486,81,127108,119901
5177,487,81,127108,119899
5180,488,81,127113,119899
5182,490,81,127130,119900
5185,490,81,127135,119903
5187,490,81,127132,119910
5189,490,81,127138,119909
5192,491,81,127146,119914
5194,493,81,127146,119918
5197,494,81,127158,119923
5199,495,81,127167,119917
5202,496,81,127160,119927
5204,496,81,127166,119926
5207,496,81,127176,119929
5210,497,81,127172,119933
5212,498,81,127180,119935
5215,498,81,127187,119936
5217,499,81,127190,119938
5220,499,81,127195,119940
5222,501,81,127197,119949
5225,501,81,127201,119945
5227,502,81,127215,119941
5229,503,81,127219,119946
5232,504,81,127219,119962
5234,504,81,127233,119963
5237,503,81,127238,119974
5239,503,81,127237,119967
5242,503,81,127248,119967
5244,504,81,127256,119969
5246,505,81,127254,119983
5250,505,81,127260,119981
5252,505,81,127272,119979
5255,506,80,127287,119985
5257,506,81,127284,119985
5260,506,81,127287,120000
5262,507,81,127294,119995
5265,507,81,127300,119994
5267,508,81,127289,119991
5269,508,81,127298,119997
5272,508,81,127303,119996
5274,508,80,127305,119992
5277,508,81,127285,119991
5279,509,81,127285,119987
5282,508,81,127280,119983
5284,509,81,127268,119975
5286,509,81,127252,119982
5289,509,80,127236,119954
5292,509,80,127211,119952
5295,509,80,127192,119939
5297,508,81,127166,119934
5300,508,80,127152,119917
5302,507,80,127125,119898
5305,506,80,127081,119883
5307,506,80,127045,119871
5309,506,80,127011,119864
5312,505,81,126974,119839
5314,505,80,126940,119824
5317,506,80,126894,119804
5319,506,80,126856,119787
5322,507,81,126821,119770
5324,507,80,126787,119766
5326,507,80,126756,119743
5329,506,80,126733,119732
5331,506,80,126698,119719
5335,506,80,126674,119700
5337,506,80,126645,119693
5340,506,80,126621,119683
5342,507,80,126595,119667
5345,508,81,126584,119654
5347,509,80,126564,119647
5349,510,80,126552,119641
5352,511,80,126519,119642
5354,511,80,126511,119635
5357,512,80,126496,119627
5359,514,80,126486,119614
5362,515,80,126469,119614
5364,516,80,126472,119609
5366,516,80,126446,119602
5369,516,80,126443,119600
5371,517,80,126437,119591
5374,517,80,126433,119584
5377,517,80,126419,119584
5380,518,80,126409,119582
5382,518,80,126414,119577
5385,518,80,126397,119566
5387,517,80,126401,119571
5389,516,80,126396,119566
5392,515,80,126401,119571
5394,515,80,126393,119563
5397,515,80,126393,119564
5399,514,80,126384,119566
5402,514,80,126386,119566
5404,512,80,126389,119563
5406,512,80,126385,119560
5409,511,80,126386,119554
5411,510,80,126390,119556
5414,510,80,126386,119551
5416,510,80,126378,119549
5420,510,80,126378,119554
5422,510,80,126386,119552
5425,510,80,126381,119552
5427,509,80,126394,119556
5429,509,80,126396,119553
5432,510,80,126384,119554
5434,510,80,126384,119561
5437,510,80,126398,119554
5439,510,80,126392,119559
5442,510,80,126392,119557
5444,511,80,126405,119561
5446,511,80,126404,119561
5449,513,81,126417,119572
5451,513,80,126413,119568
5454,514,80,126419,119570
5456,514,80,126419,119570
5459,514,80,126419,119579
5462,513,81,126422,119578
5465,513,80,126422,119570
5467,513,81,126442,119581
5469,513,80,126447,119581
5472,512,81,126453,119582
5474,512,81,126453,119583
5477,513,80,126462,119585
5479,513,80,126465,119585
5482,514,80,126475,119593
5484,515,81,126485,119594
5486,515,81,126476,119594
5489,515,80,126492,119595
5491,515,81,126492,119601
5494,514,81,126512,119604
5496,514,81,126507,119604
5499,514,81,126518,119601
5501,514,81,126518,119611
5505,514,81,126520,119612
5507,514,81,126541,119612
5509,513,81,126541,119618
5512,512,80,126547,119613
5514,512,81,126568,119613
5517,511,81,126562,119627
5519,511,81,126562,119620
5522,511,81,126580,119627
5524,511,81,126582,119627
5526,510,81,126593,119631
5529,510,81,126598,119633
5531,509,81,126604,119633
5534,508,81,126604,119626
5536,506,81,126604,119636
5539,505,81,126615,119636
5541,505,81,126615,119645
5544,506,81,126631,119645
5547,506,81,126632,119645
5549,506,81,126651,119651
5552,506,81,126655,119668
5554,507,81,126659,119668
5557,506,81,126659,119661
5559,505,81,126656,119667
5562,505,81,126664,119667
5564,505,81,126664,119668
5566,505,81,126675,119665
5569,506,81,126677,119665
5571,505,81,126690,119665
5574,506,81,126690,119675
5576,506,81,126695,119675
5579,507,81,126695,119672
5581,508,81,126691,119681
5584,509,81,126694,119681
5586,512,81,126694,119684
5588,514,81,126700,119682
5592,517,81,126697,119685
5594,518,81,126697,119679
5597,518,81,126702,119679
5599,519,81,126702,119681
5602,519,81,126704,119681
5604,520,81,126705,119676
5606,522,81,126705,119674
5609,522,81,126706,119674
5611,523,81,126709,119680
5614,524,81,126709,119684
5616,524,81,126710,119681
5619,524,81,126714,119681
5621,522,81,126715,119678
5624,516,81,126715,119686
5626,514,81,126727,119680
5628,512,81,126716,119680
5632,511,81,126730,119682
5634,510,81,126731,119681
5637,507,81,126731,119680
5639,504,81,126748,119684
5642,503,81,126746,119684
5644,501,81,126749,119687
5646,500,81,126749,119702
5649,499,81,126755,119695
5651,499,81,126752,119695
5654,498,81,126758,119703
5656,498,81,126756,119701
5659,498,81,126764,119708
5661,497,81,126782,119709
5664,497,81,126791,119709
5666,497,81,126792,119719
5668,498,81,126792,119717
5671,497,81,126797,119719
5673,497,81,126800,119719
5677,497,81,126800,119722
5679,497,81,126807,119723
5682,497,81,126818,119725
5684,497,81,126823,119732
5686,497,81,126828,119726
5689,497,81,126833,119732
5691,497,81,126829,119731
5694,498,81,126844,119741
5696,498,81,126850,119748
5699,498,81,126858,119748
5701,500,81,126853,119748
5704,500,81,126872,119750
5706,501,81,126865,119755
5708,501,81,126882,119755
5711,501,81,126887,119759
5713,499,81,126877,119755
5716,498,81,126882,119756
5719,497,81,126894,119759
5722,495,81,126891,119764
5724,495,81,126913,119771
5726,496,81,126923,119768
5729,499,81,126910,119771
5731,503,81,126920,119770
5734,513,81,126929,119776
5736,529,81,126935,119775
5739,552,81,126943,119783
5741,598,81,126944,119778
5744,616,81,126953,119789
5746,632,81,126959,119786
5748,641,81,126971,119793
5751,644,81,126981,119803
5753,640,81,126990,119801
5756,629,81,126995,119820
5758,607,81,126993,119810
5762,581,81,127011,119817
5764,532,81,127006,119824
5766,512,81,127004,119826
5769,492,81,127021,119817
5771,476,81,127025,119826
5774,463,81,127033,119831
5776,448,81,127040,119833
5779,445,81,127040,119836
5781,446,81,127046,119842
5784,450,81,127052,119837
5786,465,81,127049,119846
5788,471,81,127057,119856
5791,476,81,127061,119845
5793,480,81,127076,119851
5796,485,81,127075,119858
5798,487,81,127070,119858
5801,489,81,127085,119854
5804,491,81,127084,119859
5806,492,81,127093,119862
5809,494,81,127082,119854
5811,495,81,127092,119868
5814,497,81,127088,119858
5816,497,81,127100,119867
5819,497,81,127105,119860
5821,496,81,127107,119857
5824,497,81,127106,119862
5826,498,81,127105,119858
5828,498,81,127113,119863
5831,499,81,127115,119866
5833,499,81,127128,119868
5836,500,81,127123,119869
5838,500,81,127123,119867
5841,501,81,127128,119865
5843,502,81,127130,119871
5846,503,81,127129,119866
5849,504,81,127143,119873
5851,505,81,127137,119881
5854,505,81,127140,119873
5856,505,81,127141,119873
5859,504,81,127153,119881
5861,504,81,127160,119886
5864,504,81,127161,119889
5866,504,81,127165,119887
5868,504,81,127164,119888
5871,505,81,127173,119892
5873,507,81,127176,119900
5876,508,81,127186,119902
5878,508,81,127184,119903
5881,508,81,127186,119905
5883,508,81,127206,119906
5885,508,81,127197,119903
5889,508,81,127198,119907
5891,508,81,127202,119906
5894,508,81,127198,119914
5896,508,81,127202,119911
5899,509,81,127198,119908
5901,509,81,127200,119908
5904,510,81,127205,119905
5906,510,81,127195,119907
5908,510,81,127187,119896
5911,511,81,127175,119894
5913,511,81,127155,119882
5916,511,81,127155,119874
5918,511,81,127114,119868
5921,510,81,127092,119868
5923,510,81,127067,119844
5925,510,81,127033,119815
5928,510,81,126982,119797
5931,511,81,126951,119785
5934,511,81,126920,119769
5936,510,81,126871,119743
5939,509,81,126871,119731
5941,508,81,126790,119709
5944,507,81,126751,119709
5946,506,81,126710,119680
5948,506,81,126675,119655
5951,506,81,126639,119641
5953,507,81,126639,119628
5956,507,81,126574,119611
5958,508,81,126547,119611
5961,508,81,126521,119589
5963,509,81,126495,119576
5965,509,81,126495,119562
5968,510,81,126444,119559
5970,511,81,126420,119559
5974,511,81,126412,119543
5976,510,81,126412,119524
5979,511,81,126389,119524
5981,512,81,126354,119524
5984,514,81,126354,119516
5986,516,81,126338,119518
5988,517,81,126338,119503
5991,517,81,126315,119502
5993,518,81,126306,119502
5996,517,82,126300,119495
5998,517,81,126300,119492
6001,517,81,126295,119493
6003,517,81,126289,119493
6005,517,81,126287,119495
6008,516,81,126286,119485
6010,515,81,126286,119493
6013,515,81,126277,119493
6016,515,81,126287,119493
6019,514,81,126282,119489
6021,514,81,126282,119490
6024,514,81,126279,119487
6026,513,81,126271,119487
6028,513,81,126276,119487
6031,512,81,126280,119488
6033,511,82,126277,119488
6036,510,82,126276,119479
6038,510,81,126276,119485
6041,510,81,126283,119483
6043,510,82,126269,119486
6045,509,82,126269,119484
6048,509,82,126271,119484
6050,509,81,126276,119482
6053,509,82,126287,119472
6055,508,81,126287,119476
6059,509,81,126271,119476
6061,509,82,126271,119474
6064,510,81,126280,119476
6066,510,81,126279,119476
6068,511,81,126262,119466
6071,512,81,126276,119468
6073,512,82,126281,119468
6076,514,82,126281,119470
6078,514,82,126288,119473
6081,514,82,126280,119473
6083,513,82,126280,119469
6085,513,82,126293,119469
6088,513,81,126303,119469
6090,513,82,126305,119477
6093,514,82,126305,119484
6095,514,82,126309,119484
6098,514,82,126309,119489
6100,514,82,126325,119483
6104,514,82,126334,119483
6106,513,82,126334,119497
6108,513,82,126342,119496
6111,514,82,126356,119515
6113,514,82,126356,119515
6116,514,82,126366,119507
6118,514,82,126374,119521
6121,514,82,126387,119521
6123,514,82,126412,119517
6125,513,82,126412,119522
6128,513,82,126421,119522
6130,513,82,126432,119536
6133,513,82,126432,119539
6135,513,82,126444,119545
6138,512,82,126461,119545
6140,511,82,126466,119543
6144,510,82,126466,119560
6146,509,82,126478,119562
6148,509,82,126486,119562
6151,510,82,126502,119567
6153,510,82,126509,119575
6156,510,82,126509,119569
6158,511,82,126523,119572
6161,511,82,126533,119572
6163,511,82,126535,119576
6165,511,82,126535,119585
6168,510,82,126545,119580
6170,509,82,126545,119580
6173,508,82,126555,119581
6175,507,82,126553,119581
6178,506,81,126553,119581
6180,506,82,126553,119586
6183,505,82,126577,119591
6185,505,82,126569,119591
6188,504,82,126569,119589
6191,505,82,126581,119593
6193,505,82,126581,119593
6196,504,82,126584,119594
6198,504,82,126580,119600
6201,504,82,126593,119598
6203,504,81,126591,119599
6205,504,82,126593,119603
6208,503,82,126607,119606
6210,503,82,126613,119609
6213,504,82,126610,119610
6215,504,82,126624,119611
6218,504,82,126626,119616
6220,503,82,126643,119625
6223,503,82,126644,119623
6225,504,82,126634,119626
6227,504,82,126646,119634
6231,505,82,126654,119632
6233,506,82,126655,119635
6236,506,82,126658,119651
6238,506,82,126668,119636
6241,506,82,126671,119641
6243,507,82,126667,119643
6245,508,82,126672,119649
6248,510,82,126679,119643
6250,513,82,126676,119648
6253,517,82,126692,119642
6255,519,82,126690,119655
6258,519,82,126687,119652
6260,519,82,126691,119645
6263,519,81,126697,119647
6265,521,82,126687,119653
6267,522,82,126691,119653
6270,524,82,126698,119653
6273,525,82,126704,119653
6276,526,82,126715,119653
6278,526,82,126717,119656
6281,525,82,126722,119663
6283,523,82,126722,119661
6285,520,82,126732,119669
6288,514,82,126731,119668
6290,512,82,126734,119668
6293,512,82,126740,119675
6295,511,82,126747,119669
6298,510,82,126759,119682
6300,506,82,126766,119678
6303,504,82,126765,119683
6305,502,82,126778,119682
6307,501,82,126784,119695
6310,500,82,126785,119693
6312,499,82,126791,119702
6316,499,82,126798,119700
6318,499,82,126807,119704
6321,499,82,126815,119709
6323,498,82,126824,119716
6325,498,82,126830,119719
6328,497,82,126828,119712
6330,497,82,126842,119719
6333,498,81,126845,119721
6335,498,82,126848,119723
6338,498,82,126863,119732
6340,498,82,126870,119725
6343,498,81,126874,119736
6345,498,82,126871,119739
6347,498,82,126877,119744
6350,499,82,126888,119738
6352,499,82,126882,119733
6355,499,82,126889,119747
6358,499,82,126904,119745
6361,498,82,126892,119755
6363,499,82,126909,119756
6365,500,82,126910,119759
6368,500,82,126917,119771
6370,500,82,126918,119765
6373,499,82,126929,119770
6375,498,82,126941,119780
6378,496,82,126945,119775
6380,495,81,126942,119783
6383,494,82,126951,119752
6385,495,81,126954,119773
6387,497,82,126953,119783
6390,499,82,126965,119788
6392,505,82,126961,119788
6395,516,82,126974,119791
6397,542,82,126984,119792
6401,557,82,126989,119794
6403,594,82,126990,119799
6405,615,82,126999,119804
6408,628,82,127015,119807
6410,638,82,127002,119807
6413,640,82,127011,119809
6415,635,82,127016,119813
6418,624,82,127023,119812
6420,600,82,127031,119816
6423,580,82,127036,119819
6425,532,82,127044,119822
6427,509,82,127045,119820
6430,493,82,127048,119825
6432,469,82,127058,119826
6435,460,82,127058,119825
6437,450,82,127058,119830
6440,445,82,127070,119830
6443,445,82,127080,119836
6445,450,82,127082,119838
6448,462,82,127072,119834
6450,469,82,127072,119843
6453,476,81,127087,119841
6455,482,82,127090,119840
6458,484,82,127090,119842
6460,487,82,127090,119845
6463,488,81,127088,119845
6465,491,82,127110,119839
6467,491,82,127096,119842
6470,493,82,127100,119847
6472,494,82,127100,119838
6475,495,82,127100,119843
6477,496,82,127104,119838
6480,496,82,127104,119847
6482,497,82,127119,119847
6484,497,82,127127,119847
6488,498,82,127135,119854
6490,499,82,127135,119858
6493,499,81,127135,119864
6495,500,82,127151,119864
6498,500,82,127157,119873
6500,500,82,127156,119869
6503,501,82,127164,119884
6505,501,82,127169,119875
6507,502,82,127179,119875
6510,504,82,127185,119885
6512,504,82,127185,119892
6515,504,81,127192,119892
6517,505,82,127194,119892
6520,505,82,127205,119898
6522,504,82,127207,119900
6524,504,82,127207,119903
6528,504,82,127221,119909
6530,505,82,127214,119909
6533,505,82,127220,119914
6535,507,82,127220,119915
6538,507,81,127226,119905
6540,508,82,127232,119905
6543,508,82,127245,119911
6545,508,82,127231,119902
6547,508,82,127231,119913
6550,508,81,127240,119905
6552,509,82,127244,119905
6555,509,82,127245,119915
6557,509,82,127245,119913
6560,509,81,127244,119911
6562,509,82,127235,119911
6564,509,82,127245,119908
6567,510,82,127228,119891
6569,510,81,127217,119891
6573,510,81,127217,119886
6575,509,81,127207,119881
6578,509,82,127170,119881
6580,509,82,127170,119859
6583,509,82,127149,119844
6585,508,81,127101,119844
6587,508,82,127074,119837
6590,508,81,127034,119812
6592,507,82,127008,119812
6595,508,82,127008,119770
6597,508,81,126965,119759
6600,508,82,126888,119759
6602,508,81,126888,119725
6604,508,82,126854,119714
6607,508,82,126771,119714
6609,508,81,126737,119695
6612,508,81,126737,119660
6615,508,81,126660,119660
6618,506,82,126660,119625
6620,507,82,126629,119618
6623,508,81,126564,119618
6625,510,82,126564,119591
6627,511,81,126541,119583
6630,511,81,126491,119574
6632,511,81,126491,119561
6635,510,81,126479,119556
6637,510,81,126452,119546
6640,510,81,126434,119546
6642,511,82,126408,119534
6644,512,81,126408,119520
6647,513,82,126372,119520
6649,514,82,126363,119518
6652,514,81,126363,119509
6654,515,82,126364,119506
6658,516,82,126343,119506
6660,515,81,126342,119505
6663,515,82,126342,119494
6665,515,81,126336,119485
6667,514,81,126326,119485
6670,514,82,126323,119482
6672,514,81,126327,119489
6675,513,81,126327,119482
6677,513,81,126329,119490
6680,513,82,126316,119482
6682,513,81,126312,119493
6684,512,81,126312,119482
6687,511,81,126321,119475
6689,512,81,126310,119475
6692,512,81,126314,119481
6694,512,81,126319,119476
6697,511,81,126315,119473
6700,510,82,126311,119474
6703,510,81,126314,119471
6705,510,82,126314,119476
6707,509,82,126316,119476
6710,510,81,126308,119474
6712,510,81,126315,119474
6715,510,82,126321,119478
6717,512,81,126335,119472
6720,511,82,126334,119478
6722,511,81,126334,119485
6724,510,81,126328,119479
6727,509,82,126348,119481
6729,508,82,126338,119483
6732,508,81,126337,119484
6734,507,81,126341,119483
6737,507,81,126355,119486
6739,508,81,126359,119494
6743,509,81,126365,119491
6745,511,81,126360,119491
6747,511,81,126371,119500
6750,512,81,126353,119489
6752,513,82,126369,119499
6755,514,82,126369,119500
6757,514,81,126376,119488
6760,514,81,126389,119492
6762,514,81,126383,119497
6764,513,81,126396,119496
6767,511,82,126395,119498
6769,511,81,126407,119493
6772,510,81,126401,119500
6774,511,81,126417,119503
6777,511,81,126419,119507
6779,512,82,126429,119502
6782,512,82,126431,119510
6785,513,81,126438,119509
6787,513,81,126456,119520
6790,513,81,126457,119524
6792,513,81,126471,119532
6795,513,81,126478,119526
6797,512,81,126488,119536
6800,511,81,126497,119547
6802,511,81,126514,119545
6804,511,81,126515,119553
6807,511,81,126524,119553
6809,511,81,126529,119555
6812,511,81,126537,119563
6814,511,81,126549,119568
6817,510,81,126554,119566
6819,508,81,126567,119565
6822,508,81,126553,119571
6824,507,81,126574,119568
6827,507,81,126581,119573
6830,507,81,126580,119579
6832,506,81,126585,119576
6835,506,81,126584,119577
6837,506,82,126599,119580
6840,506,81,126601,119586
6842,506,81,126599,119583
6844,506,81,126612,119586
6847,504,81,126609,119585
6849,504,81,126611,119596
6852,504,81,126619,119593
6854,503,81,126622,119586
6857,503,81,126623,119595
6859,503,81,126632,119594
6862,504,81,126635,119596
6864,503,82,126632,119595
6866,503,81,126646,119600
6870,503,81,126635,119599
6872,503,81,126634,119600
6875,504,81,126637,119597
6877,505,81,126642,119603
6880,505,81,126643,119598
6882,505,81,126644,119604
6884,504,81,126655,119597
6887,504,81,126646,119610
6889,504,81,126649,119599
6892,504,81,126654,119603
6894,504,81,126665,119606
6897,505,81,126665,119602
6899,505,82,126662,119604
6902,506,81,126667,119616
6904,508,81,126670,119610
6906,510,81,126666,119616
6909,511,81,126674,119612
6912,513,81,126673,119619
6915,517,81,126680,119625
6917,518,81,126685,119615
6920,518,81,126682,119618
6922,518,81,126692,119620
6924,518,81,126694,119620
6927,520,81,126694,119628
6929,522,81,126694,119619
6932,523,81,126707,119632
6934,523,81,126712,119631
6937,523,81,126716,119627
6939,521,81,126724,119630
6942,518,81,126724,119628
6944,515,81,126721,119633
6946,513,81,126725,119633
6949,511,81,126725,119637
6951,510,81,126729,119636
6955,509,81,126729,119636
6957,507,81,126750,119644
6960,506,81,126747,119644
6962,503,81,126763,119647
6964,502,81,126761,119644
6967,501,81,126767,119649
6969,500,81,126767,119655
6972,499,81,126775,119662
6974,498,81,126781,119664
6977,498,81,126781,119656
6979,497,81,126793,119666
6982,497,81,126799,119666
6984,496,81,126806,119668
6986,496,81,126809,119666
6989,495,81,126808,119668
6991,494,81,126808,119671
6994,494,81,126810,119671
6996,494,81,126817,119676
7000,494,81,126817,119682
7002,495,81,126827,119672
7004,496,81,126837,119672
7007,497,81,126850,119685
7009,497,81,126850,119686
7012,497,81,126852,119688
7014,498,81,126854,119688
7017,498,81,126871,119699
7019,499,81,126867,119686
7022,499,81,126864,119708
7024,499,81,126881,119699
7026,500,81,126886,119699
7029,499,81,126894,119702
7031,499,81,126894,119709
7034,498,81,126892,119712
7036,497,81,126900,119712
7040,496,81,126908,119710
7042,493,81,126913,119712
7044,493,81,126913,119722
7047,494,81,126928,119722
7049,497,81,126935,119722
7052,501,81,126942,119730
7054,517,81,126942,119729
7057,535,81,126943,119733
7059,552,81,126948,119733
7062,575,81,126963,119743
7064,611,81,126963,119743
7066,626,81,126965,119744
7069,632,81,126969,119744
7071,635,81,126982,119746
7074,635,81,126986,119757
7076,619,81,126986,119762
7079,595,81,126999,119760
7081,575,81,126995,119760
7084,554,81,127021,119771
7087,512,81,127029,119772
7089,498,81,127029,119772
7092,469,81,127029,119777
7094,457,81,127028,119781
7097,449,81,127047,119781
7099,442,81,127047,119780
7102,443,81,127044,119787
7104,448,81,127055,119787
7106,454,81,127064,119797
7109,469,81,127071,119801
7111,474,81,127075,119801
7114,483,81,127075,119807
7116,486,81,127083,119809
7119,487,81,127094,119809
7121,488,81,127094,119807
7123,489,81,127106,119811
7127,489,81,127108,119811
7129,490,81,127114,119825
7132,491,81,127114,119829
7134,491,81,127122,119829
7137,493,81,127122,119835
7139,494,81,127133,119845
7142,495,81,127138,119845
7144,496,81,127138,119847
7146,496,81,127152,119846
7149,497,81,127153,119846
7151,497,81,127153,119846
7154,498,81,127156,119850
7156,499,81,127163,119851
7159,499,81,127161,119851
7161,499,81,127180,119850
7163,499,81,127180,119861
7166,500,81,127183,119861
7169,500,81,127183,119864
7172,501,81,127191,119871
7174,501,81,127197,119872
7177,502,81,127204,119872
7179,502,81,127211,119874
7182,502,81,127211,119883
7184,502,81,127229,119883
7186,503,81,127229,119885
7189,505,81,127232,119886
7191,506,81,127227,119892
7194,505,81,127233,119902
7196,506,81,127241,119896
7199,507,81,127258,119896
7201,508,81,127264,119905
7203,508,81,127266,119913
7206,508,81,127279,119915
7208,509,81,127287,119921
7212,509,81,127293,119921
7214,508,81,127293,119924
7217,507,81,127293,119921
7219,508,81,127299,119921
7222,508,81,127302,119925
7224,508,81,127302,119932
7226,508,81,127296,119925
7229,508,81,127293,119926
7231,509,81,127290,119917
7234,509,81,127282,119918
7236,509,81,127273,119922
7239,509,81,127276,119921
7241,509,81,127262,119909
7243,509,81,127244,119897
7246,508,81,127204,119894
7248,507,81,127196,119880
7251,507,81,127166,119872
7254,506,81,127136,119853
7257,506,80,127100,119838
7259,506,81,127064,119821
7262,506,81,127029,119806
7264,506,81,126993,119793
7266,507,80,126952,119777
7269,507,81,126918,119754
7271,507,81,126881,119740
7274,507,80,126854,119729
7276,506,81,126821,119717
7279,506,81,126785,119708
7281,505,80,126760,119688
7283,504,80,126732,119679
7286,504,80,126703,119655
7288,504,81,126665,119647
7291,505,81,126645,119634
7293,506,80,126628,119634
7297,506,80,126608,119621
7299,508,80,126592,119611
7302,508,81,126573,119607
7304,510,81,126578,119598
7306,510,80,126568,119593
7309,511,81,126557,119589
7311,511,80,126543,119580
7314,512,80,126529,119587
7316,514,80,126530,119570
7319,515,80,126522,119573
7321,516,81,126516,119570
7323,515,81,126509,119577
7326,514,81,126516,119562
7328,513,80,126517,119573
7331,512,80,126515,119570
7333,512,81,126512,119573
7336,512,81,126507,119572
7339,512,80,126507,119569
7342,511,80,126522,119565
7344,510,80,126515,119564
7346,509,80,126509,119570
7349,509,80,126524,119569
7351,509,80,126527,119562
7354,509,81,126518,119572
7356,508,80,126521,119566
7359,508,81,126523,119578
7361,508,80,126522,119573
7363,508,80,126537,119576
7366,509,81,126528,119578
7368,508,80,126534,119575
7371,507,80,126532,119578
7373,507,80,126533,119582
7376,508,81,126545,119580
7378,508,80,126552,119589
7382,508,80,126549,119588
7384,507,81,126549,119589
7386,507,80,126556,119589
7389,507,81,126552,119592
7391,507,80,126569,119600
7394,507,80,126567,119608
7396,508,80,126568,119601
7399,509,81,126578,119597
7401,512,81,126582,119605
7403,513,81,126597,119609
7406,513,81,126604,119619
7408,513,81,126608,119620
7411,512,81,126608,119626
7413,512,81,126634,119626
7416,512,81,126631,119634
7418,512,81,126637,119634
7421,513,81,126647,119643
7424,514,81,126655,119645
7426,514,81,126662,119645
7429,513,80,126671,119645
7431,512,81,126672,119648
7434,511,81,126679,119655
7436,511,81,126686,119660
7439,511,81,126686,119669
7441,510,81,126713,119672
7443,511,81,126718,119672
7446,511,81,126733,119685
7448,511,81,126744,119677
7451,510,81,126748,119686
7453,509,81,126755,119695
7456,509,81,126773,119706
7458,508,81,126786,119700
7461,508,81,126786,119703
7463,507,81,126802,119709
7465,508,81,126795,119709
7469,508,81,126819,119717
7471,508,81,126811,119713
7474,508,81,126811,119719
7476,508,81,126826,119724
7479,507,81,126839,119724
7481,507,81,126843,119739
7483,508,81,126848,119737
7486,509,81,126861,119735
7488,509,81,126861,119742
7491,508,81,126872,119740
7493,507,81,126871,119750
7496,507,81,126871,119745
7498,507,81,126885,119753
7501,506,81,126887,119753
7503,506,81,126895,119764
7505,506,81,126895,119761
7508,505,81,126905,119757
7511,505,81,126906,119757
7514,505,81,126917,119757
7516,505,81,126923,119762
7519,505,81,126920,119776
7521,506,81,126924,119769
7523,507,81,126924,119775
7526,509,81,126931,119771
7528,511,81,126935,119771
7531,514,81,126930,119772
7533,515,81,126930,119777
7536,515,81,126931,119771
7538,516,81,126925,119771
7541,517,81,126937,119763
7543,518,81,126931,119764
7545,519,80,126931,119772
7548,520,81,126934,119773
7550,522,81,126941,119773
7554,524,81,126932,119767
7556,525,81,126932,119765
7559,524,81,126944,119770
7561,523,81,126935,119770
7563,519,81,126944,119763
7566,513,81,126942,119766
7568,511,81,126942,119765
7571,509,81,126944,119769
7573,508,81,126952,119769
7576,506,81,126956,119771
7578,502,81,126956,119763
7581,499,81,126946,119766
7583,498,81,126958,119766
7585,497,81,126961,119773
7588,496,81,126969,119771
7590,496,81,126963,119771
7593,496,81,126963,119779
7596,496,80,126967,119784
7599,496,81,126974,119784
7601,495,81,126974,119778
7603,495,81,126983,119779
7606,494,81,126996,119779
7608,494,81,127002,119786
7611,495,80,127002,119798
7613,495,81,127012,119798
7616,495,81,127012,119791
7618,495,81,127018,119803
7621,495,81,127023,119803
7623,495,81,127023,119806
7625,496,80,127030,119800
7628,496,81,127038,119800
7630,497,81,127043,119806
7633,496,81,127043,119807
7635,495,81,127048,119807
7639,495,81,127048,119808
7641,497,81,127026,119811
7643,499,81,127053,119811
7646,499,81,127053,119808
7648,499,81,127057,119808
7651,498,80,127062,119808
7653,497,81,127077,119816
7656,495,81,127077,119817
7658,494,81,127076,119817
7661,493,81,127076,119816
7663,493,81,127073,119820
7665,495,80,127074,119820
7668,497,81,127095,119822
7670,501,80,127093,119828
7673,515,80,127093,119827
7675,532,80,127102,119833
7678,548,81,127094,119833
7681,571,81,127106,119835
7683,591,81,127106,119837
7686,626,81,127109,119832
7688,633,81,127114,119832
7691,637,81,127115,119840
7693,639,81,127115,119841
7696,625,81,127116,119844
7698,606,81,127129,119844
7701,582,81,127123,119846
7703,564,81,127123,119844
7705,520,81,127140,119844
7708,497,81,127138,119854
7710,482,81,127138,119853
7713,467,81,127140,119849
7715,449,81,127169,119848
7718,444,81,127151,119849
7720,442,81,127143,119859
7723,444,81,127149,119852
7726,450,81,127150,119856
7728,468,81,127161,119858
7731,474,81,127162,119858
7733,480,81,127162,119863
7736,483,81,127163,119863
7738,488,80,127170,119857
7741,489,81,127188,119866
7743,490,81,127180,119876
7745,491,80,127191,119870
7748,492,81,127194,119868
7750,493,81,127200,119877
7753,493,80,127205,119878
7755,493,80,127210,119882
7758,493,80,127207,119887
7760,494,80,127211,119886
7762,495,80,127221,119891
7766,497,80,127225,119889
7768,497,81,127231,119893
7771,498,81,127220,119896
7773,498,81,127232,119886
7776,499,81,127242,119898
7778,502,80,127235,119893
7781,502,80,127241,119892
7783,502,80,127247,119897
7785,502,81,127247,119901
7788,502,80,127252,119899
7790,502,81,127249,119902
7793,503,80,127259,119905
7795,503,81,127269,119904
7798,503,81,127280,119906
7800,503,80,127283,119909
7802,504,80,127290,119919
7805,504,80,127295,119924
7808,505,80,127298,119926
7811,505,80,127299,119922
7813,506,80,127302,119931
7816,506,80,127304,119941
7818,507,80,127310,119940
7821,508,80,127320,119942
7823,508,80,127332,119945
7825,508,81,127335,119951
7828,508,80,127347,119950
7830,509,80,127347,119958
7833,509,80,127346,119952
7835,509,80,127352,119960
7838,509,80,127346,119960
7840,509,80,127347,119957
7842,509,80,127346,119954
7845,509,80,127352,119959
7847,509,80,127351,119960
7851,510,80,127350,119955
7853,510,80,127346,119953
7856,510,80,127344,119943
7858,509,80,127325,119941
7861,509,80,127309,119929
7863,510,80,127293,119933
7865,510,80,127276,119916
7868,509,80,127253,119909
7870,509,80,127223,119904
7873,508,80,127204,119885
7875,508,80,127176,119878
7878,507,80,127141,119862
7880,506,80,127107,119845
7882,505,80,127081,119829
7885,504,80,127038,119812
7887,504,80,127003,119808
7890,504,80,126970,119786
7892,505,80,126924,119769
7896,505,80,126903,119759
7898,506,80,126866,119740
7901,506,80,126842,119721
7903,506,80,126809,119717
7905,506,80,126780,119698
7908,506,80,126749,119689
7910,507,80,126738,119684
7913,508,80,126710,119672
7915,509,80,126684,119659
7918,511,80,126672,119658
7920,511,80,126664,119646
7922,512,80,126645,119646
7925,513,80,126636,119630
7927,513,80,126622,119630
7930,513,80,126621,119637
7932,513,80,126599,119628
7936,513,80,126595,119620
7938,514,80,126587,119618
7941,514,80,126590,119617
7943,514,80,126584,119616
7945,514,80,126579,119613
7948,513,80,126576,119609
7950,513,80,126577,119610
7953,512,80,126577,119620
7955,512,80,126564,119613
7958,511,80,126563,119613
7960,511,80,126568,119608
7962,511,80,126566,119607
7965,511,80,126567,119610
7967,511,80,126571,119611
7970,511,80,126572,119609
7972,510,80,126570,119612
7975,510,80,126569,119606
7977,509,80,126573,119602
7981,508,80,126573,119618
7983,508,80,126579,119614
7985,506,80,126586,119614
7988,506,80,126602,119616
7990,507,80,126591,119619
7993,508,80,126602,119623
7995,508,80,126620,119624
7998,507,80,126620,119631
8000,507,80,126628,119640
8002,508,80,126636,119640
8005,508,80,126651,119649
8007,509,80,126658,119649
8010,509,80,126661,119654
8012,509,80,126661,119662
8015,510,80,126669,119666
8017,510,80,126688,119669
8020,510,80,126688,119671
8023,510,80,126695,119677
8025,510,80,126712,119677
8028,511,80,126721,119689
8030,511,80,126721,119695
8033,511,80,126722,119693
8035,510,80,126737,119693
8038,510,80,126742,119695
8040,510,80,126746,119705
8042,509,80,126746,119717
8045,510,80,126766,119710
8047,510,80,126778,119710
8050,511,80,126786,119724
8052,511,80,126786,119721
8055,511,80,126792,119725
8057,511,80,126799,119725
8060,510,80,126820,119735
8062,510,80,126832,119735
8065,511,80,126832,119748
8068,511,80,126854,119749
8070,510,80,126861,119749
8073,510,80,126868,119763
8075,509,80,126868,119761
8078,509,80,126881,119765
8080,509,80,126889,119765
8082,508,80,126897,119769
8085,508,80,126915,119780
8087,508,80,126914,119780
8090,507,80,126930,119785
8092,508,80,126930,119796
8095,507,80,126939,119792
8097,508,80,126954,119792
8100,507,80,126965,119801
8102,507,80,126965,119805
8104,506,80,126971,119814
8108,506,80,126972,119814
8110,505,80,126989,119820
8113,505,80,126982,119813
8115,507,80,126982,119815
8118,509,80,126998,119821
8120,511,80,126996,119821
8122,512,80,127012,119824
8125,515,80,127012,119819
8127,516,80,127003,119818
8130,516,80,127002,119818
8132,516,80,127009,119828
8135,517,80,127009,119820
8137,517,80,127009,119820
8140,518,80,127013,119824
8142,520,80,127013,119822
8144,521,80,127008,119825
8147,521,80,127011,119825
8150,521,80,126983,119822
8153,520,80,126983,119823
8155,517,80,127013,119824
8158,515,80,127012,119824
8160,512,80,127018,119821
8162,510,80,127012,119833
8165,508,80,127012,119819
8167,505,80,127004,119825
8170,502,80,127016,119825
8172,499,80,127023,119827
8175,496,80,127023,119829
8177,496,80,127018,119830
8180,495,80,127018,119830
8182,495,80,127019,119832
8184,495,80,127024,119829
8187,495,80,127024,119827
8189,494,80,127019,119827
8193,493,80,127009,119827
8195,492,80,127027,119839
8198,492,80,127027,119833
8200,493,80,127023,119840
8202,494,80,127021,119840
8205,493,80,127022,119841
8207,493,80,127024,119843
8210,493,80,127021,119831
8212,494,80,127033,119831
8215,494,80,127035,119834
8217,494,80,127026,119832
8220,494,80,127026,119832
8222,495,80,127034,119835
8224,495,80,127027,119835
8227,496,80,127030,119837
8229,496,80,127033,119829
8232,497,79,127032,119832
8235,498,80,127035,119831
8238,498,80,127047,119830
8240,499,80,127048,119839
8242,499,80,127048,119844
8245,498,80,127058,119844
8247,496,80,127063,119837
8250,494,80,127071,119843
8252,492,80,127084,119842
8255,491,80,127078,119839
8257,491,80,127080,119859
8260,493,80,127097,119856
8262,495,80,127096,119864
8264,506,80,127094,119858
8267,514,80,127098,119864
8269,529,80,127117,119864
8272,548,80,127128,119866
8274,591,80,127135,119871
8278,607,80,127141,119874
8280,621,80,127131,119875
8282,628,80,127141,119875
8285,633,80,127139,119879
8287,634,80,127149,119886
8290,613,80,127148,119885
8292,592,80,127159,119889
8295,571,80,127150,119889
8297,546,80,127165,119887
8300,522,80,127172,119881
8302,482,80,127173,119888
8304,467,80,127176,119884
8307,458,80,127182,119892
8309,450,80,127186,119900
8312,443,80,127190,119901
8314,438,80,127185,119899
8317,440,80,127190,119901
8320,446,80,127203,119903
8322,454,80,127208,119905
8325,469,80,127210,119916
8327,475,80,127212,119910
8330,480,80,127208,119912
8332,484,80,127212,119917
8335,487,80,127219,119915
8337,490,80,127221,119914
8340,490,80,127223,119916
8342,491,80,127235,119930
8344,490,80,127249,119921
8347,490,80,127247,119928
8349,491,80,127250,119933
8352,492,80,127254,119928
8354,492,80,127251,119932
8357,493,80,127262,119936
8359,494,80,127261,119939
8361,496,80,127268,119947
8365,496,80,127281,119947
8367,496,80,127279,119950
8370,495,80,127289,119956
8372,496,80,127298,119955
8375,496,80,127297,119958
8377,498,80,127305,119954
8380,499,80,127311,119961
8382,500,80,127315,119966
8384,501,80,127323,119966
8387,501,80,127315,119973
8389,501,80,127315,119962
8392,502,80,127331,119974
8394,502,80,127341,119977
8397,502,80,127332,119973
8399,502,80,127341,119978
8401,503,80,127343,119973
8404,503,80,127345,119979
8407,503,80,127350,119982
8410,503,79,127353,119980
8412,503,80,127354,119985
8415,503,80,127346,119983
8417,504,80,127362,119983
8420,504,80,127369,119984
8422,505,80,127367,119986
8424,506,80,127367,119982
8427,507,80,127373,119985
8429,507,80,127373,119983
8432,507,80,127371,119980
8434,507,80,127376,119988
8437,506,80,127370,119979
8439,506,80,127369,119976
8441,506,80,127368,119979
8444,506,80,127366,119972
8446,506,80,127368,119973
8450,507,80,127357,119978
8452,507,80,127349,119962
8455,506,80,127337,119962
8457,504,80,127329,119956
8460,504,80,127316,119944
8462,502,80,127300,119939
8464,502,80,127280,119934
8467,502,80,127260,119918
8469,502,80,127236,119910
8472,504,80,127211,119903
8474,504,80,127186,119883
8477,504,80,127186,119875
8479,503,80,127116,119864
8481,503,80,127087,119864
8484,502,80,127070,119830
8486,502,80,127018,119813
8489,502,80,126992,119795
8492,502,80,126949,119790
8495,503,80,126918,119768
8497,503,80,126877,119742
8500,503,80,126877,119727
8502,504,80,126811,119706
8504,505,80,126782,119706
8507,506,80,126763,119693
8509,507,80,126737,119676
8512,507,80,126737,119669
8514,508,80,126688,119656
8517,508,80,126675,119656
8519,510,80,126652,119637
8521,511,80,126652,119634
8524,511,80,126624,119626
8526,512,80,126617,119626
8529,512,80,126606,119620
8531,512,80,126606,119610
8535,512,80,126606,119610
8537,512,80,126593,119607
8540,512,80,126587,119607
8542,512,80,126590,119606
8544,512,80,126590,119599
8547,512,80,126588,119599
8549,512,80,126576,119599
8552,511,80,126596,119592
8554,511,80,126582,119596
8557,511,80,126580,119604
8559,510,80,126580,119609
8561,510,80,126591,119608
8564,510,80,126592,119609
8566,510,80,126595,119609
8569,508,80,126594,119609
8571,508,79,126594,119620
8574,507,79,126608,119614
8577,507,80,126623,119614
8580,507,80,126627,119617
8582,508,80,126627,119621
8584,508,80,126629,119631
8587,509,80,126647,119639
8589,509,79,126647,119639
8592,509,79,126657,119640
8594,510,80,126656,119640
8597,510,80,126676,119645
8599,510,80,126676,119652
8601,510,79,126679,119652
8604,509,79,126687,119650
8606,510,79,126695,119650
8609,509,79,126695,119657
8611,509,79,126704,119657
8614,509,79,126711,119663
8616,509,79,126711,119662
8620,510,79,126714,119665
8622,511,79,126722,119665
8624,511,79,126727,119661
8627,512,79,126730,119667
8629,512,79,126741,119667
8632,512,79,126741,119672
8634,511,79,126738,119676
8637,510,79,126753,119676
8639,510,79,126753,119680
8641,510,79,126770,119693
8644,510,79,126787,119693
8646,510,79,126796,119696
8649,510,79,126796,119703
8651,510,79,126801,119709
8654,510,79,126824,119709
8656,510,79,126834,119708
8659,510,79,126834,119726
8662,510,79,126850,119726
8664,509,79,126866,119732
8667,509,79,126866,119742
8669,508,79,126873,119743
8672,508,79,126889,119743
8674,508,79,126895,119742
8677,510,79,126895,119756
8679,513,79,126903,119762
8681,515,79,126911,119762
8684,517,79,126940,119763
8686,518,79,126933,119778
8689,519,79,126933,119780
8691,517,79,126951,119777
8694,517,79,126951,119777
8696,516,79,126968,119781
8699,516,79,126968,119784
8701,519,79,126970,119791
8704,521,79,126973,119791
8707,523,79,126982,119785
8709,524,79,126986,119799
8712,523,79,126986,119802
8714,521,79,126997,119802
8717,519,79,126995,119798
8719,515,79,127003,119811
8721,513,79,127003,119811
8724,510,79,127004,119819
8726,510,79,127006,119819
8729,508,79,127014,119819
8731,506,79,127010,119820
8734,504,79,127025,119823
8736,500,79,127022,119820
8739,499,79,127028,119833
8741,498,79,127028,119827
8743,497,79,127035,119827
8747,497,79,127035,119824
8749,497,79,127040,119836
8752,497,79,127044,119838
8754,496,79,127057,119831
8757,496,79,127045,119834
8759,495,79,127052,119839
8761,495,79,127048,119839
8764,493,79,127061,119841
8766,493,79,127041,119843
8769,492,79,127057,119851
8771,493,79,127063,119849
8774,494,79,127069,119851
8776,495,79,127081,119856
8779,496,79,127086,119864
8781,496,79,127075,119865
8783,496,79,127087,119873
8786,496,79,127089,119877
8788,496,79,127102,119875
8792,497,79,127098,119882
8794,497,79,127103,119878
8797,497,79,127100,119883
8799,497,79,127108,119879
8801,497,79,127115,119886
8804,497,79,127122,119881
8806,497,79,127127,119886
8809,497,79,127133,119892
8811,496,79,127138,119896
8814,495,79,127137,119901
8816,494,79,127139,119901
8819,493,79,127145,119901
8821,494,79,127150,119907
8823,496,79,127157,119907
8826,502,79,127161,119912
8828,511,79,127167,119907
8832,542,79,127176,119911
8834,564,79,127176,119919
8837,588,79,127178,119927
8839,607,79,127185,119923
8841,623,79,127194,119920
8844,638,80,127186,119935
8846,640,79,127190,119926
8849,640,80,127200,119928
8851,631,80,127206,119930
8854,611,79,127211,119935
8856,571,79,127223,119936
8859,545,79,127218,119949
8861,524,79,127225,119937
8863,501,80,127238,119952
8866,470,79,127238,119951
8868,459,79,127247,119962
8871,453,80,127253,119960
8873,445,79,127266,119959
8877,438,79,127257,119968
8879,441,80,127271,119967
8881,446,79,127276,119980
8884,455,79,127286,119977
8886,463,80,127295,119981
8889,471,79,127293,119987
8891,479,80,127296,119988
8894,482,80,127304,119989
8896,484,79,127311,120000
8899,486,79,127318,119991
8901,489,80,127322,120001
8903,490,80,127324,120007
8906,490,80,127326,120006
8908,491,80,127332,119996
8911,492,80,127327,120010
8913,493,79,127343,120017
8916,494,80,127341,120006
8919,495,80,127342,120017
8921,496,80,127346,120014
8924,497,80,127348,120013
8926,498,80,127347,120022
8929,499,80,127348,120015
8931,500,80,127361,120017
8934,500,80,127365,120024
8936,500,80,127376,120019
8939,500,80,127368,120023
8941,501,80,127366,120024
8943,501,80,127382,120025
8946,502,80,127382,120037
8948,502,80,127391,120026
8951,502,80,127392,120028
8953,502,80,127395,120040
8956,503,80,127406,120040
8958,504,80,127413,120047
8961,505,80,127429,120058
8964,505,80,127435,120056
8966,506,80,127430,120057
8969,506,80,127437,120059
8971,506,80,127439,120062
8974,506,80,127446,120062
8976,507,80,127468,120075
8979,508,80,127473,120075
8981,508,80,127472,120075
8983,508,80,127483,120077
8986,508,80,127481,120080
8988,508,80,127481,120076
8991,507,80,127481,120081
8993,507,80,127495,120083
8996,508,80,127503,120083
8998,507,80,127498,120095
9000,507,80,127507,120093
9004,508,80,127501,120090
9006,508,80,127501,120091
9009,508,80,127494,120088
9011,508,80,127492,120083
9014,508,80,127492,120073
9016,508,80,127470,120067
9019,507,80,127458,120067
9021,505,80,127448,120063
9023,505,80,127422,120045
9026,504,80,127405,120038
9028,504,81,127405,120022
9031,504,80,127354,120010
9033,504,81,127322,120000
9036,504,81,127322,119987
9038,504,81,127259,119974
9040,505,81,127228,119974
9043,506,81,127197,119942
9046,506,81,127197,119925
9049,505,81,127120,119910
9051,505,81,127085,119910
9054,504,81,127065,119891
9056,503,81,127020,119854
9059,504,81,126988,119851
9061,506,81,126965,119836
9063,507,81,126932,119836
9066,509,81,126907,119807
9068,510,81,126907,119801
9071,511,81,126888,119799
9073,512,81,126851,119799
9076,512,81,126821,119791
9078,514,81,126821,119769
9080,515,81,126821,119764
9083,516,81,126790,119764
9085,517,81,126778,119764
9089,518,81,126772,119757
9091,518,81,126772,119753
9094,518,81,126758,119751
9096,518,81,126747,119751
9099,518,81,126751,119747
9101,517,81,126740,119740
9103,517,81,126740,119738
9106,517,81,126739,119739
9108,518,81,126735,119739
9111,518,81,126731,119742
9113,517,81,126731,119731
9116,516,81,126728,119725
9118,515,81,126733,119725
9120,515,81,126746,119734
9123,515,81,126740,119731
9125,515,81,126742,119731
9128,516,81,126742,119738
9131,516,81,126754,119736
9134,515,81,126752,119736
9136,514,81,126752,119747
9139,514,81,126768,119746
9141,513,81,126771,119746
9143,513,81,126781,119746
9146,513,81,126783,119749
9148,514,81,126787,119749
9151,515,81,126787,119757
9153,515,81,126803,119764
9156,515,81,126800,119764
9158,514,81,126800,119767
9160,514,81,126815,119764
9163,514,81,126814,119764
9165,514,82,126825,119770
9168,515,82,126825,119781
9170,515,82,126838,119781
9174,515,82,126838,119784
9176,515,82,126843,119790
9179,515,82,126850,119790
9181,515,82,126850,119801
9183,516,82,126869,119797
9186,516,82,126869,119805
9188,517,82,126869,119806
9191,517,82,126883,119817
9193,516,82,126898,119820
9196,516,82,126905,119820
9198,515,82,126932,119830
9200,514,82,126932,119837
9203,514,82,126942,119837
9205,515,82,126949,119849
9208,515,82,126949,119842
9210,515,82,126961,119842
9213,515,82,126978,119851
9216,515,82,126987,119864
9219,518,82,126987,119865
9221,519,82,126998,119866
9223,520,82,126998,119866
9226,521,82,126999,119868
9228,522,82,127021,119872
9231,523,82,127024,119864
9233,522,82,127036,119882
9236,521,82,127031,119876
9238,521,82,127044,119883
9240,521,82,127044,119878
9243,524,82,127058,119881
9245,525,82,127048,119881
9248,527,82,127061,119885
9250,527,82,127066,119888
9253,528,82,127072,119891
9255,526,82,127073,119887
9259,524,82,127084,119885
9261,523,82,127084,119893
9263,519,82,127095,119893
9266,517,82,127088,119897
9268,516,82,127089,119894
9271,514,82,127094,119899
9273,511,82,127114,119892
9276,508,82,127103,119902
9278,506,82,127109,119904
9280,504,82,127108,119907
9283,502,82,127111,119907
9285,500,82,127103,119904
9288,500,82,127100,119912
9290,500,82,127113,119905
9293,499,82,127119,119907
9295,497,82,127128,119910
9298,496,82,127123,119909
9300,496,82,127113,119909
9303,496,82,127113,119906
9306,496,82,127113,119907
9308,496,82,127117,119907
9311,496,82,127112,119901
9313,497,82,127116,119906
9316,497,82,127124,119905
9318,497,82,127112,119901
9320,498,82,127120,119908
9323,499,82,127128,119903
9325,500,82,127125,119903
9328,500,82,127108,119918
9330,500,82,127127,119908
9333,501,82,127129,119901
9335,500,82,127121,119917
9338,500,82,127124,119909
9340,499,82,127123,119905
9342,499,82,127123,119909
9346,500,83,127121,119902
9348,500,82,127113,119907
9351,500,83,127119,119904
9353,499,83,127131,119908
9356,496,83,127126,119907
9358,495,83,127128,119911
9360,493,82,127124,119908
9363,495,82,127131,119906
9365,497,82,127130,119906
9368,501,83,127125,119900
9370,510,83,127137,119910
9373,524,83,127137,119906
9375,555,83,127140,119903
9378,578,82,127129,119908
9380,602,83,127136,119907
9382,621,83,127147,119905
9385,635,83,127149,119910
9388,639,83,127150,119911
9391,641,83,127154,119911
9393,632,83,127155,119912
9396,618,83,127158,119919
9398,596,83,127165,119911
9400,572,83,127169,119919
9403,524,83,127170,119929
9405,505,83,127174,119930
9408,489,83,127180,119927
9410,472,83,127185,119930
9413,459,83,127186,119931
9415,446,83,127187,119936
9418,440,83,127201,119934
9420,439,83,127194,119944
9422,442,83,127210,119945
9425,450,83,127208,119949
9427,465,83,127211,119954
9431,472,83,127224,119957
9433,479,83,127234,119961
9436,485,83,127230,119962
9438,486,83,127248,119968
9440,488,83,127245,119967
9443,490,83,127251,119972
9445,490,83,127264,119976
9448,491,83,127270,119984
9450,492,83,127276,119987
9453,493,83,127273,119989
9455,495,83,127289,119992
9458,496,83,127300,119997
9460,496,83,127295,120003
9462,498,83,127305,120009
9465,499,83,127308,120005
9467,499,83,127321,120011
9470,499,83,127324,120018
9473,499,83,127337,120006
9476,499,83,127332,120019
9478,500,83,127326,120018
9480,500,83,127340,120020
9483,501,83,127353,120020
9485,502,83,127347,120028
9488,504,83,127359,120028
9490,504,83,127361,120034
9493,505,83,127361,120030
9495,504,83,127369,120028
9498,504,83,127374,120028
9500,504,83,127383,120043
9502,505,83,127395,120040
9505,505,83,127398,120050
9507,506,83,127398,120038
9510,507,83,127397,120049
9512,507,83,127406,120041
9516,507,83,127406,120050
9518,506,83,127416,120058
9520,506,83,127416,120058
9523,506,83,127430,120054
9525,506,83,127431,120061
9528,507,83,127424,120065
9530,507,83,127442,120066
9533,507,83,127443,120065
9535,508,83,127441,120064
9538,508,84,127441,120064
9540,508,83,127438,120062
9542,508,84,127442,120062
9545,509,83,127452,120077
9547,509,83,127452,120062
9550,509,83,127446,120064
9552,508,84,127426,120064
9555,508,83,127426,120055
9558,507,83,127409,120038
9560,506,83,127409,120038
9563,506,84,127368,120028
9565,506,83,127348,120028
9568,506,84,127329,120017
9570,504,84,127329,119993
9573,504,83,127304,119983
9575,503,84,127238,119983
9578,503,84,127211,119972
9580,503,84,127174,119935
9582,502,84,127174,119921
9585,502,84,127104,119903
9587,502,83,127061,119903
9590,502,84,127038,119889
9592,503,84,126992,119852
9595,503,84,126960,119843
9597,504,84,126960,119826
9600,505,83,126922,119815
9603,506,84,126870,119804
9605,506,84,126847,119804
9608,508,84,126823,119781
9610,509,83,126823,119770
9613,511,84,126811,119763
9615,512,84,126772,119763
9618,513,83,126752,119757
9620,514,84,126752,119741
9622,516,83,126736,119732
9625,518,84,126721,119727
9627,519,84,126721,119718
9630,519,84,126702,119724
9632,519,84,126694,119724
9635,519,84,126692,119719
9637,518,84,126692,119706
9639,517,84,126675,119712
9643,517,83,126665,119712
9645,517,84,126669,119705
9648,517,83,126654,119696
9650,517,84,126658,119696
9653,516,84,126658,119683
9655,516,84,126655,119687
9658,515,84,126650,119687
9660,514,84,126650,119677
9662,513,84,126643,119682
9665,513,84,126641,119682
9667,512,84,126641,119677
9670,512,84,126641,119683
9672,512,84,126637,119683
9675,512,84,126637,119672
9677,512,84,126603,119669
9679,513,84,126634,119669
9682,513,84,126634,119674
9684,513,84,126645,119673
9688,513,84,126638,119673
9690,513,84,126644,119668
9693,512,84,126644,119666
9695,511,84,126639,119666
9698,512,84,126639,119665
9700,512,84,126641,119669
9702,513,84,126640,119669
9705,513,84,126656,119668
9707,513,84,126649,119679
9710,514,84,126649,119678
9712,515,84,126662,119679
9715,516,84,126662,119679
9717,515,84,126657,119681
9719,515,84,126664,119680
9722,515,84,126664,119686
9724,515,84,126665,119686
9728,514,84,126682,119686
9730,514,84,126680,119691
9733,514,84,126680,119691
9735,515,84,126686,119692
9738,515,84,126689,119692
9740,515,84,126699,119689
9742,516,84,126703,119696
9745,516,84,126705,119697
9747,515,84,126725,119702
9750,514,84,126741,119700
9752,513,84,126738,119704
9755,513,84,126738,119712
9757,514,84,126757,119718
9759,515,84,126747,119718
9762,516,84,126762,119716
9764,517,84,126768,119721
9767,518,84,126775,119721
9769,521,84,126777,119718
9773,523,84,126796,119720
9775,524,84,126801,119734
9778,524,84,126801,119732
9780,524,84,126810,119732
9782,525,84,126808,119729
9785,524,84,126814,119735
9787,525,84,126817,119735
9790,525,84,126826,119737
9792,527,84,126842,119741
9795,527,84,126837,119745
9797,527,84,126844,119748
9799,527,84,126843,119748
9802,525,84,126851,119748
9804,520,84,126851,119750
9807,518,84,126853,119754
9809,516,84,126863,119748
9812,514,84,126861,119750
9815,513,84,126861,119752
9818,512,84,126864,119753
9820,510,84,126869,119745
9822,508,84,126871,119750
9825,505,84,126865,119749
9827,501,84,126867,119754
9830,500,84,126870,119764
9832,499,84,126880,119753
9835,498,84,126885,119759
9837,498,84,126889,119763
9839,497,84,126886,119759
9842,495,83,126889,119759
9844,494,84,126884,119758
9847,493,84,126880,119760
9849,493,83,126888,119764
9852,493,83,126888,119768
9854,493,84,126888,119768
9858,494,83,126882,119766
9860,494,83,126891,119759
9862,495,83,126884,119762
9865,496,83,126896,119765
9867,497,83,126893,119761
9870,497,83,126887,119760
9872,498,84,126891,119762
9875,498,84,126881,119770
9877,499,83,126884,119774
9879,499,83,126884,119763
9882,499,83,126881,119765
9884,499,83,126869,119758
9887,499,83,126876,119757
9889,499,83,126875,119761
9892,499,83,126880,119756
9894,498,83,126880,119755
9897,496,84,126869,119751
9900,495,83,126863,119752
9902,493,83,126878,119753
9905,492,83,126867,119752
9907,493,83,126861,119747
9910,495,83,126863,119747
9912,498,83,126856,119738
9915,505,83,126851,119740
9917,518,83,126842,119728
9919,538,83,126836,119730
9922,583,83,126840,119729
9924,604,83,126841,119729
9927,621,84,126836,119726
9929,637,83,126832,119723
9932,644,83,126836,119727
9934,646,84,126824,119719
9937,641,84,126836,119709
9939,626,84,126836,119716
9942,604,84,126837,119718
9945,574,84,126831,119720
9947,532,83,126840,119722
9950,511,84,126837,119712
9952,487,84,126830,119718
9955,467,84,126839,119712
9957,458,84,126839,119717
9959,449,83,126835,119712
9962,440,84,126831,119720
9964,441,84,126837,119709
9967,444,84,126844,119723
9969,451,84,126849,119719
9972,460,84,126852,119725
9974,473,84,126861,119733
9977,478,84,126867,119731
9979,481,84,126873,119738
9981,483,84,126875,119738
9985,486,84,126886,119751
9987,488,84,126891,119743
9990,489,84,126891,119752
9992,489,84,126897,119746
9995,490,84,126906,119746
9997,492,84,126911,119751
9999,493,84,126913,119751
10002,494,84,126923,119752
10004,495,84,126935,119763
10007,495,84,126933,119765
10009,496,84,126936,119768
10012,496,84,126947,119772
10014,497,84,126955,119772
10017,497,84,126955,119775
10019,498,84,126956,119776
10021,498,84,126966,119779
10024,499,84,126980,119776
10027,500,84,126980,119784
10030,501,84,126986,119790
10032,502,84,126996,119796
10035,502,84,126996,119801
10037,502,83,127014,119802
10039,503,83,127007,119802
10042,504,84,127029,119811
10044,504,84,127028,119818
10047,504,84,127041,119819
10049,504,83,127041,119821
10052,504,83,127049,119819
10054,504,83,127061,119830
10057,504,83,127061,119840
10059,505,83,127076,119837
10061,506,83,127090,119837
10064,507,83,127107,119856
10066,507,83,127107,119860
10070,507,83,127106,119860
10072,507,83,127121,119860
10075,507,83,127142,119866
10077,507,83,127139,119874
10079,507,83,127139,119881
10082,507,83,127143,119878
10084,508,83,127156,119878
10087,508,83,127157,119894
10089,508,83,127157,119886
10092,508,83,127154,119893
10094,507,83,127147,119893
10097,507,83,127142,119885
10099,506,82,127133,119870
10101,506,82,127133,119870
10104,506,82,127093,119863
10106,506,82,127072,119863
10109,505,82,127044,119853
10112,504,82,127044,119827
10115,503,82,126992,119813
10117,503,82,126955,119813
10119,502,82,126923,119804
10122,502,82,126885,119770
10124,502,82,126848,119770
10127,502,82,126822,119740
10129,503,82,126822,119726
10132,503,81,126789,119709
10134,503,82,126725,119709
10137,503,81,126689,119694
10139,503,81,126689,119666
10141,503,81,126661,119654
10144,504,81,126612,119654
10146,504,81,126594,119644
10149,505,81,126570,119644
10151,507,81,126570,119614
10155,508,81,126535,119605
10157,509,81,126503,119605
10159,509,81,126492,119598
10162,511,81,126492,119583
10164,513,81,126485,119579
10167,514,81,126450,119579
10169,515,81,126446,119579
10172,517,80,126446,119568
10174,518,80,126425,119568
10177,517,81,126421,119568
10179,517,81,126421,119565
10181,517,80,126418,119567
10184,517,80,126410,119567
10186,516,80,126407,119570
10189,516,80,126407,119564
10191,516,80,126407,119557
10194,517,80,126391,119557
10196,516,80,126398,119562
10199,516,80,126391,119563
10202,515,80,126391,119557
10204,514,80,126390,119561
10207,514,80,126395,119561
10209,513,80,126397,119564
10212,512,80,126397,119563
10214,512,80,126393,119563
10217,511,80,126393,119561
10219,510,80,126391,119556
10221,510,80,126395,119556
10224,510,80,126406,119560
10226,510,80,126396,119564
10229,509,79,126396,119557
10231,508,80,126401,119563
10234,508,80,126394,119563
10236,508,79,126401,119563
10238,508,79,126401,119567
10242,509,79,126395,119562
10244,510,79,126407,119562
10247,510,79,126402,119565
10249,510,79,126412,119566
10252,511,79,126411,119564
10254,511,79,126419,119566
10257,512,79,126418,119567
10259,512,79,126417,119573
10261,512,79,126417,119573
10264,512,79,126428,119572
10266,513,79,126426,119572
10269,513,79,126432,119574
10271,513,79,126426,119566
10274,513,79,126435,119572
10276,513,79,126445,119574
10278,514,79,126436,119566
10281,514,79,126442,119569
10284,515,79,126439,119568
10287,514,79,126459,119576
10289,514,79,126459,119577
10292,514,79,126468,119577
10294,514,78,126470,119580
10297,514,79,126484,119591
10299,513,79,126488,119599
10301,513,78,126496,119593
10304,513,78,126510,119595
10306,514,78,126511,119598
10309,514,78,126528,119604
10311,515,78,126534,119605
10314,515,78,126548,119618
10316,515,78,126563,119628
10318,514,78,126580,119632
10321,514,78,126583,119630
10323,513,78,126598,119640
10327,512,78,126605,119642
10329,511,78,126619,119645
10332,511,78,126622,119656
10334,511,78,126632,119658
10337,511,78,126638,119658
10339,511,78,126644,119668
10341,512,78,126650,119671
10344,514,78,126658,119667
10346,518,78,126658,119671
10349,520,78,126661,119676
10351,521,78,126673,119670
10354,521,78,126686,119682
10356,521,78,126690,119684
10358,520,78,126688,119680
10361,520,78,126691,119676
10363,520,78,126691,119685
10366,521,78,126690,119689
10369,522,78,126693,119691
10372,523,78,126693,119686
10374,523,78,126695,119684
10377,522,78,126695,119693
10379,520,78,126699,119691
10381,518,78,126711,119694
10384,514,78,126717,119701
10386,511,78,126714,119691
10389,510,78,126708,119689
10391,509,78,126717,119694
10394,508,78,126712,119694
10396,506,78,126713,119694
10398,504,78,126724,119694
10401,501,78,126721,119694
10403,500,77,126730,119698
10406,499,78,126729,119702
10408,498,78,126742,119699
10412,497,78,126741,119695
10414,496,78,126736,119705
10417,496,78,126742,119699
10419,496,78,126739,119703
10421,495,77,126752,119709
10424,494,77,126739,119704
10426,493,78,126739,119709
10429,493,78,126751,119703
10431,493,77,126749,119706
10434,493,77,126746,119709
10436,493,77,126746,119700
10438,494,77,126746,119703
10441,495,77,126744,119704
10443,495,77,126751,119710
10446,495,77,126746,119703
10448,496,77,126751,119703
10451,496,77,126751,119699
10454,498,77,126746,119697
10457,499,78,126760,119704
10459,499,77,126763,119705
10461,498,77,126766,119708
10464,498,77,126755,119704
10466,498,77,126765,119703
10469,498,77,126770,119707
10471,496,77,126784,119716
10474,495,77,126781,119710
10476,493,77,126787,119716
10478,492,77,126798,119718
10481,491,77,126789,119718
10483,492,77,126802,119726
10486,497,77,126799,119728
10488,504,77,126817,119723
10491,512,77,126821,119732
10493,530,77,126816,119739
10497,547,77,126818,119738
10499,594,77,126833,119741
10501,617,77,126841,119741
10504,632,77,126853,119742
10506,644,77,126854,119748
10509,649,77,126860,119753
10511,646,77,126869,119743
10514,636,77,126869,119750
10516,610,77,126869,119750
10518,588,77,126879,119750
10521,536,77,126875,119754
10523,511,77,126882,119746
10526,493,77,126883,119745
10528,473,77,126888,119751
10531,462,77,126881,119749
10533,444,77,126891,119750
10536,440,77,126891,119750
10539,440,77,126893,119758
10541,445,77,126897,119758
10544,459,77,126907,119761
10546,467,77,126913,119750
10549,473,77,126913,119758
10551,478,77,126908,119757
10554,481,77,126912,119757
10556,485,77,126922,119759
10558,486,77,126922,119755
10561,487,77,126916,119753
10563,488,77,126921,119753
10566,488,77,126928,119762
10568,489,77,126931,119768
10571,490,77,126931,119770
10573,491,76,126935,119770
10576,493,76,126950,119770
10578,494,77,126945,119769
10580,494,76,126945,119777
10584,494,76,126960,119780
10586,495,77,126970,119780
10589,495,76,126975,119783
10591,496,76,126991,119789
10594,497,76,126987,119805
10596,499,76,126987,119801
10598,500,76,126995,119803
10601,501,77,126997,119813
10603,502,76,127013,119813
10606,503,76,127021,119812
10608,503,76,127021,119822
10611,504,76,127030,119821
10613,504,76,127041,119821
10616,504,76,127047,119817
10618,504,76,127054,119825
10620,504,76,127054,119832
10624,504,77,127059,119835
10626,504,76,127059,119835
10629,504,76,127062,119836
10631,504,76,127067,119836
10634,505,76,127074,119839
10636,505,76,127074,119837
10638,506,76,127078,119835
10641,506,76,127075,119834
10643,506,77,127079,119834
10646,507,77,127079,119838
10648,508,77,127074,119838
10651,509,76,127078,119845
10653,510,76,127078,119831
10656,509,76,127072,119835
10658,509,76,127060,119835
10660,509,76,127075,119832
10663,508,76,127060,119820
10665,508,77,127062,119820
10669,507,76,127062,119817
10671,507,76,127039,119813
10674,507,76,127009,119813
10676,508,76,127009,119789
10678,507,76,126984,119776
10681,507,76,126920,119776
10683,507,76,126903,119767
10686,507,77,126860,119737
10688,507,76,126826,119737
10691,506,76,126826,119696
10693,505,76,126790,119692
10696,505,76,126714,119692
10698,504,76,126714,119651
10700,503,76,126683,119635
10703,504,76,126601,119635
10705,503,76,126566,119614
10708,504,76,126566,119581
10711,505,76,126532,119570
10714,506,77,126503,119570
10716,506,76,126451,119557
10718,507,77,126451,119533
10721,507,77,126390,119533
10723,507,77,126361,119522
10726,509,77,126361,119498
10728,510,77,126345,119490
10731,511,77,126295,119490
10733,511,77,126279,119483
10736,511,77,126279,119462
10738,511,77,126260,119459
10740,512,77,126245,119459
10743,512,77,126224,119452
10745,513,77,126201,119447
10748,515,77,126201,119435
10750,516,77,126195,119432
10754,517,77,126158,119432
10756,517,77,126161,119426
10758,517,77,126161,119417
10761,515,77,126154,119413
10763,514,77,126135,119413
10766,513,77,126132,119410
10768,513,77,126130,119408
10771,513,77,126123,119405
10773,512,77,126125,119401
10776,512,77,126113,119409
10778,512,77,126113,119403
10780,511,77,126115,119403
10783,510,77,126110,119407
10785,510,77,126115,119407
10788,509,77,126119,119408
10790,509,77,126138,119406
10793,508,77,126123,119415
10796,508,77,126123,119414
10798,507,77,126125,119408
10801,507,77,126128,119415
10803,508,77,126124,119406
10806,508,77,126140,119413
10808,508,77,126140,119418
10811,508,77,126135,119418
10813,508,77,126130,119418
10816,508,77,126153,119422
10818,507,77,126142,119429
10820,507,77,126152,119424
10823,508,77,126146,119422
10825,509,77,126150,119421
10828,509,77,126150,119427
10830,509,77,126160,119432
10833,509,77,126162,119422
10835,508,77,126171,119434
10838,508,77,126174,119435
10841,508,77,126170,119430
10843,508,77,126183,119439
10846,509,77,126182,119437
10848,510,77,126192,119438
10851,511,77,126192,119445
10853,512,77,126195,119433
10856,512,77,126192,119443
10858,512,77,126206,119450
10860,513,77,126212,119449
10863,513,77,126209,119450
10865,513,78,126234,119457
10868,513,78,126230,119457
10870,512,78,126235,119459
10873,511,77,126241,119450
10875,511,78,126237,119453
10877,510,78,126244,119457
10881,510,78,126257,119453
10883,510,78,126251,119459
10886,511,78,126278,119463
10888,511,78,126281,119465
10891,511,78,126285,119472
10893,510,78,126299,119472
10896,509,78,126306,119475
10898,510,78,126304,119474
10900,510,78,126321,119482
10903,510,78,126329,119478
10905,510,78,126340,119489
10908,510,78,126342,119481
10910,510,78,126348,119487
10913,510,78,126365,119486
10915,509,78,126373,119490
