TimeStamp,ECG Data,GSR Data,PPG_Red Data,PPG_IR Data
144734,504,7,136328,113160
144736,503,7,136320,113160
144739,502,7,136301,113155
144741,504,7,136292,113151
3,0,0,0,0
6,501,4,0,0
8,500,4,57566,57529
11,480,4,73934,73955
13,437,4,90325,90366
16,395,4,106675,106721
18,347,4,123082,113371
20,307,4,137124,113374
23,275,4,136927,113378
25,234,4,136936,113378
28,222,4,136947,113389
30,213,4,136954,113384
33,209,4,136959,113393
35,207,4,136965,113389
37,211,4,136972,113399
40,218,4,136986,113404
43,232,4,136990,113401
46,237,5,137003,113401
48,247,4,137014,113410
51,262,4,137027,113412
53,302,5,137034,113413
56,322,5,137050,113419
58,344,4,137037,113415
60,357,4,137060,113432
63,366,4,137070,113428
65,365,5,137088,113437
68,354,4,137093,113441
70,331,5,137105,113444
73,322,5,137109,113451
75,314,5,137125,113444
77,307,5,137134,113450
80,302,5,137146,113455
82,303,5,137164,113458
86,304,5,137159,113462
88,307,5,137166,113469
91,313,5,137178,113469
93,320,5,137188,113484
96,328,5,137202,113477
98,346,5,137211,113481
100,352,5,137217,113487
103,358,5,137243,113492
105,359,5,137244,113495
108,360,5,137254,113501
110,364,5,137267,113504
113,370,5,137274,113496
115,381,5,137285,113514
117,387,5,137292,113517
120,394,5,137315,113517
122,400,5,137329,113524
125,402,5,137342,113524
128,403,5,137355,113533
131,406,5,137354,113543
133,410,5,137364,113538
136,414,5,137385,113543
138,427,5,137390,113545
140,431,5,137399,113552
143,435,5,137415,113554
145,437,5,137424,113556
148,438,5,137425,113559
150,438,5,137437,113564
153,438,6,137449,113567
155,444,6,137457,113568
157,449,6,137467,113580
160,455,6,137476,113584
162,459,6,137494,113582
165,460,6,137490,113586
167,458,6,137500,113593
171,460,6,137510,113596
173,463,6,137528,113592
176,466,6,137531,113600
178,478,6,137537,113599
180,480,6,137547,113612
183,482,6,137553,113616
185,484,6,137569,113592
188,484,6,137566,113592
190,483,6,137597,113627
193,483,6,137595,113630
195,484,6,137592,113624
197,491,6,137605,113630
200,497,6,137608,113634
202,500,6,137619,113639
205,498,6,137629,113632
207,495,6,137645,113645
210,496,6,137645,113645
212,499,6,137647,113649
216,503,6,137655,113657
218,512,6,137660,113648
220,514,6,137673,113650
223,516,6,137682,113651
225,517,6,137681,113651
228,516,6,137693,113652
230,515,6,137699,113658
233,516,7,137701,113661
235,521,6,137707,113664
237,528,6,137712,113669
240,532,6,137721,113669
242,535,6,137725,113670
245,530,6,137731,113680
247,528,6,137740,113673
250,528,6,137740,113677
252,529,7,137738,113677
256,531,6,137754,113677
258,541,7,137761,113685
260,543,7,137759,113678
263,546,7,137750,113685
265,543,7,137750,113691
268,541,7,137748,113681
270,541,7,137745,113671
273,540,7,137745,113676
275,543,7,137709,113665
277,548,7,137684,113665
280,556,7,137650,113638
282,555,7,137610,113620
285,553,7,137558,113620
287,552,7,137558,113576
290,552,7,137423,113551
292,553,7,137350,113523
295,554,7,137350,113491
297,560,7,137183,113457
300,563,7,137089,113457
303,564,7,136999,113403
305,560,7,136893,113350
308,558,7,136784,113317
310,556,7,136784,113289
313,557,7,136687,113252
315,561,7,136486,113220
317,564,7,136486,113181
320,567,7,136281,113144
322,567,7,136188,113144
325,563,7,136102,113085
327,554,7,136102,113053
330,551,7,136014,113028
332,549,7,135871,113028
335,548,7,135821,113012
337,553,7,135760,112965
339,552,7,135760,112956
343,551,7,135671,112943
345,548,7,135636,112943
348,538,7,135606,112907
350,536,7,135570,112907
353,532,7,135551,112887
355,531,7,135551,112885
357,535,7,135528,112877
360,538,8,135490,112871
362,535,7,135490,112852
365,531,7,135454,112857
367,530,7,135449,112857
370,527,7,135439,112851
372,524,7,135439,112847
375,525,7,135431,112843
377,528,7,135424,112843
379,530,7,135428,112836
382,531,8,135423,112835
385,528,7,135413,112835
388,523,7,135413,112822
390,522,7,135401,112826
393,521,7,135425,112826
395,524,7,135425,112839
397,531,7,135448,112833
400,534,7,135445,112833
402,535,7,135433,112839
405,530,7,135439,112848
407,528,8,135486,112848
410,527,7,135486,112854
412,527,7,135498,112865
415,530,7,135520,112865
417,537,7,135520,112874
419,540,8,135545,112870
422,541,7,135556,112870
424,539,7,135578,112873
428,535,8,135578,112892
430,533,8,135596,112898
433,533,8,135616,112898
435,536,8,135653,112906
437,548,8,135653,112915
440,551,8,135669,112915
442,552,8,135700,112925
445,546,8,135700,112943
447,542,8,135715,112940
450,540,8,135744,112940
452,538,7,135751,112944
455,539,8,135751,112960
457,542,7,135777,112960
459,549,7,135790,112960
462,552,8,135824,112971
464,551,8,135829,112973
467,545,8,135829,112975
470,542,8,135838,112976
473,542,8,135845,112976
475,543,7,135869,112986
477,548,8,135869,112982
480,554,7,135891,112986
482,554,7,135889,112993
485,550,8,135895,112995
487,545,7,135895,112996
490,543,8,135903,112994
492,540,8,135904,113001
495,543,8,135909,113001
497,548,7,135909,113003
499,554,8,135917,112995
502,557,7,135949,113006
504,550,7,135959,113006
507,547,8,135963,113010
509,545,8,135946,113007
513,543,8,135960,113011
515,544,7,135975,113014
517,549,7,135976,113016
520,553,7,135987,113021
522,554,8,135995,113026
525,549,7,135998,113036
527,547,7,136007,113032
530,546,8,136014,113034
532,545,7,136019,113035
535,546,7,136033,113040
537,550,7,136039,113044
539,553,7,136054,113039
542,554,8,136069,113047
544,552,7,136063,113046
547,549,8,136066,113046
549,548,8,136075,113048
552,546,7,136086,113049
555,547,7,136086,113056
557,551,7,136096,113047
560,555,7,136084,113050
562,556,7,136097,113043
565,552,8,136095,113050
567,547,8,136097,113052
570,543,7,136083,113054
572,538,7,136086,113042
575,540,7,136081,113044
577,546,7,136076,113041
579,550,7,136073,113043
582,549,7,136080,113044
584,545,8,136076,113045
587,542,8,136066,113043
589,542,8,136052,113032
592,542,7,136053,113027
594,545,7,136038,113025
596,549,7,136024,113023
600,552,8,136023,113014
602,553,7,136022,113015
605,549,7,136017,113003
607,543,8,136005,113005
610,542,7,135993,113006
612,541,7,135986,113004
615,542,7,135973,112998
617,549,7,135952,112994
619,550,7,135952,112997
622,550,8,135951,112980
624,549,7,135938,112987
627,544,7,135928,112983
629,541,7,135902,112973
632,538,7,135903,112973
634,539,7,135889,112970
636,542,8,135887,112966
640,546,7,135884,112966
642,547,7,135878,112951
645,544,7,135854,112953
647,537,8,135849,112950
650,537,7,135854,112946
652,537,7,135844,112944
655,538,7,135828,112935
657,545,7,135832,112934
659,546,7,135832,112945
662,546,7,135828,112940
664,546,7,135825,112921
667,543,7,135815,112921
669,537,7,135820,112938
672,535,7,135824,112933
674,534,8,135827,112946
676,538,7,135823,112932
679,542,7,135822,112936
681,543,7,135831,112941
685,540,7,135838,112946
687,533,7,135841,112948
690,533,7,135841,112945
692,534,7,135849,112946
695,536,7,135855,112945
697,543,7,135866,112955
699,544,7,135880,112953
702,544,7,135883,112960
704,545,7,135892,112941
707,541,7,135897,112945
709,538,7,135917,112972
712,536,8,135911,112973
714,539,7,135931,112979
716,544,7,135931,112969
719,547,7,135946,112977
721,548,7,135958,112986
724,542,7,135974,112985
727,538,7,135986,112984
730,537,7,135986,112994
732,538,7,135996,113000
735,538,7,136015,113000
737,545,7,136037,113022
739,547,8,136046,113016
742,548,7,136062,113025
744,545,7,136085,113044
747,542,7,136095,113046
749,540,7,136106,113049
752,539,8,136122,113063
754,540,8,136134,113050
756,544,7,136134,113056
759,549,8,136170,113059
761,550,7,136183,113059
764,542,8,136206,113080
766,539,7,136220,113077
770,538,8,136220,113087
772,539,7,136238,113084
775,540,8,136252,113084
777,547,7,136276,113111
779,548,7,136276,113100
782,548,7,136300,113106
784,545,7,136314,113106
787,541,7,136328,113129
789,537,7,136344,113125
792,536,7,136344,113133
794,539,7,136365,113126
796,543,8,136378,113126
799,548,7,136390,113138
801,546,7,136390,113147
804,542,7,136412,113150
806,540,7,136428,113150
809,539,8,136446,113158
812,537,7,136453,113160
815,537,8,136454,113167
817,542,7,136475,113172
819,545,7,136480,113172
822,546,7,136497,113183
824,542,8,136497,113184
827,538,7,136506,113188
829,538,7,136529,113188
832,536,8,136545,113189
834,539,8,136547,113196
836,542,8,136547,113199
839,545,7,136556,113208
841,545,7,136573,113208
844,541,7,136584,113211
846,532,7,136584,113215
849,531,7,136583,113207
851,531,7,136591,113207
855,531,7,136610,113218
857,538,8,136610,113214
859,541,7,136626,113227
862,541,7,136621,113227
864,538,7,136633,113229
867,532,7,136630,113228
869,531,8,136642,113228
872,530,7,136657,113238
874,532,8,136657,113239
876,539,7,136661,113243
879,544,8,136652,113243
881,546,8,136663,113243
884,542,7,136663,113253
886,539,7,136662,113254
889,537,8,136701,113261
891,535,7,136701,113255
894,540,7,136713,113258
897,545,8,136715,113258
899,548,8,136689,113256
902,548,8,136689,113262
904,543,7,136686,113263
907,540,7,136736,113266
909,535,8,136736,113261
912,535,8,136734,113261
914,539,8,136734,113263
916,545,7,136745,113273
919,548,7,136759,113273
921,547,8,136725,113269
924,539,7,136725,113273
926,536,8,136737,113268
929,534,8,136773,113268
931,532,7,136782,113283
934,533,8,136782,113280
936,536,8,136781,113280
939,540,8,136781,113275
942,541,8,136774,113284
944,536,8,136784,113284
947,536,8,136801,113285
949,535,7,136801,113295
952,534,7,136801,113293
954,535,8,136809,113288
956,539,7,136805,113288
959,542,8,136822,113292
961,545,7,136832,113300
964,541,8,136832,113295
966,536,7,136843,113299
969,534,8,136830,113299
971,532,8,136839,113308
974,531,8,136839,113307
976,537,7,136845,113308
978,539,8,136847,113308
982,541,7,136861,113309
984,538,8,136855,113313
987,535,7,136865,113316
989,530,8,136876,113316
992,529,7,136891,113326
994,530,7,136883,113328
996,533,8,136883,113330
999,536,7,136897,113328
1001,538,7,136901,113328
1004,536,7,136907,113335
1006,534,7,136913,113340
1009,531,7,136939,113342
1011,528,7,136928,113341
1014,529,8,136943,113348
1016,532,7,136949,113354
1018,536,7,136953,113348
1021,537,7,136956,113352
1024,533,7,136962,113362
1027,529,8,136970,113362
1029,528,8,136990,113363
1032,527,8,136990,113366
1034,530,7,136997,113364
1036,534,7,137004,113369
1039,537,7,136995,113370
1041,538,8,137008,113375
1044,535,7,137024,113374
1046,528,8,137026,113383
1049,527,7,137031,113385
1051,526,7,137042,113388
1054,526,7,137048,113393
1056,534,7,137052,113395
1058,536,8,137075,113397
1061,537,7,137069,113399
1063,536,7,137083,113398
1067,533,7,137090,113406
1069,530,7,137092,113402
1072,529,7,137105,113414
1074,531,7,137110,113415
1076,535,7,137120,113419
1079,541,7,137133,113417
1081,546,7,137129,113423
1084,552,7,137137,113423
1086,561,7,137146,113427
1089,577,7,137155,113426
1091,598,7,137164,113436
1094,610,7,137176,113439
1096,617,8,137172,113433
1098,618,7,137185,113444
1101,604,7,137180,113443
1103,587,7,137199,113442
1106,576,7,137209,113449
1108,553,8,137225,113454
1112,538,7,137218,113454
1114,526,8,137241,113462
1116,515,8,137252,113463
1119,510,7,137255,113465
1121,507,7,137259,113470
1124,504,8,137265,113470
1126,499,8,137272,113473
1129,501,7,137282,113477
1131,504,7,137292,113487
1134,507,7,137302,113482
1136,518,7,137301,113482
1138,519,7,137313,113486
1141,521,7,137329,113500
1143,520,7,137327,113490
1146,517,7,137337,113493
1148,512,7,137352,113489
1152,510,7,137364,113503
1154,509,7,137367,113512
1156,513,7,137374,113517
1159,518,7,137385,113520
1161,519,7,137398,113522
1164,516,7,137411,113525
1166,510,7,137412,113533
1169,510,7,137412,113531
1171,512,7,137430,113536
1174,514,7,137441,113550
1176,522,7,137448,113550
1178,523,7,137469,113559
1181,523,7,137472,113554
1183,523,7,137474,113537
1186,519,7,137476,113533
1188,516,7,137500,113569
1191,515,7,137504,113566
1193,517,7,137507,113577
1196,524,7,137523,113573
1199,527,7,137524,113573
1201,529,7,137535,113578
1204,523,7,137541,113580
1206,519,7,137556,113583
1209,518,7,137562,113593
1211,519,7,137562,113579
1214,520,7,137570,113589
1216,526,7,137586,113592
1218,531,7,137590,113592
1221,530,7,137603,113604
1223,528,7,137605,113602
1226,522,7,137608,113607
1228,520,7,137618,113611
1231,520,7,137618,113612
1233,523,7,137637,113609
1235,527,7,137640,113609
1239,533,7,137649,113634
1241,533,7,137649,113618
1244,530,7,137665,113620
1246,525,7,137662,113628
1249,524,7,137672,113627
1251,522,7,137673,113627
1254,524,7,137673,113636
1256,530,7,137681,113633
1258,533,7,137692,113633
1261,532,7,137694,113636
1263,528,7,137695,113634
1266,526,7,137695,113641
1268,526,7,137706,113640
1271,526,7,137709,113640
1273,529,7,137717,113661
1275,532,7,137717,113648
1278,536,7,137722,113647
1281,537,7,137724,113647
1284,534,8,137736,113660
1286,527,7,137739,113656
1289,526,7,137739,113656
1291,526,7,137743,113665
1294,528,7,137750,113665
1296,536,7,137747,113668
1298,537,7,137747,113662
1301,539,7,137755,113667
1303,537,7,137750,113667
1306,534,7,137750,113662
1308,531,7,137750,113660
1311,529,7,137733,113658
1313,531,7,137718,113648
1315,534,7,137714,113648
1318,540,7,137714,113634
1320,541,8,137681,113614
1324,537,7,137616,113604
1326,535,7,137569,113604
1329,532,7,137509,113566
1331,531,7,137509,113534
1334,535,7,137452,113502
1336,543,7,137299,113479
1338,543,7,137299,113442
1341,545,7,137127,113417
1343,544,7,137030,113417
1346,540,8,136923,113385
1348,536,7,136923,113305
1351,534,7,136715,113271
1353,535,7,136609,113271
1355,537,7,136509,113229
1358,541,7,136509,113152
1360,539,7,136393,113119
1363,533,7,136165,113077
1366,529,8,136059,113077
1369,524,8,135990,113018
1371,518,8,135990,112993
1374,520,7,135909,112966
1376,524,8,135775,112947
1378,523,7,135775,112922
1381,523,7,135632,112922
1383,520,7,135606,112900
1386,515,8,135543,112894
1551,516,7,136145,113065
1553,517,7,136161,113068
1543,526,7,136095,113038
1546,520,7,136106,113049
1548,517,7,136122,113059
1551,516,7,136145,113065
1553,517,7,136161,113068
1555,521,7,136188,113076
1558,527,7,136208,113077
1560,526,7,136222,113087
1563,523,7,136228,113089
1565,520,7,136250,113097
1568,519,7,136269,113101
1570,517,7,136273,113111
1573,515,7,136274,113110
1575,521,7,136295,113112
1577,523,7,136303,113123
1581,522,7,136321,113116
1583,519,7,136317,113125
1586,514,7,136328,113126
1588,512,7,136333,113135
1591,513,7,136342,113135
1593,515,7,136342,113125
1595,517,7,136343,113125
1598,520,7,136353,113126
1600,520,7,136352,113133
1603,516,7,136351,113120
1605,510,7,136346,113124
1608,509,7,136323,113121
1610,509,7,136312,113108
1613,509,7,136312,113108
1615,516,7,136289,113105
1617,516,7,136272,113096
1620,516,7,136267,113090
1623,514,7,136252,113082
1626,510,7,136224,113079
1628,506,7,136211,113074
1631,503,7,136189,113065
1633,504,7,136175,113055
1635,507,7,136147,113062
1638,510,7,136132,113055
1640,510,7,136120,113040
1643,507,7,136089,113032
1645,500,7,136071,113021
1648,501,7,136055,113017
1650,501,7,136035,113017
1653,501,7,136016,113010
1655,507,7,136003,112993
1657,507,7,135989,113006
1660,507,7,135965,112985
1662,506,7,135947,112968
1666,503,7,135937,112961
1668,499,7,135932,112972
1671,498,7,135905,112973
1673,498,7,135892,112972
1675,504,7,135891,112957
1678,508,7,135879,112957
1680,509,7,135874,112964
1683,501,7,135868,112958
1685,497,7,135874,112963
1688,496,7,135863,112957
1690,497,7,135863,112938
1693,499,7,135865,112955
1695,504,7,135863,112960
1697,508,7,135871,112952
1700,507,7,135872,112965
1702,503,7,135871,112950
1705,498,7,135881,112947
1708,496,7,135885,112966
1711,496,7,135885,112958
1713,500,7,135895,112967
1715,504,7,135906,112967
1718,510,7,135928,112982
1720,509,7,135928,112980
1723,505,7,135934,112975
1725,501,7,135938,112988
1728,500,7,135969,112999
1730,499,7,135975,112990
1733,501,7,135980,112995
1735,510,7,136006,113001
1737,513,7,136006,113012
1740,514,7,136035,113019
1742,508,7,136052,113026
1745,505,7,136052,113028
1747,504,7,136086,113035
1751,503,7,136099,113035
1753,505,7,136111,113063
1755,507,7,136140,113052
1758,513,7,136162,113061
1760,512,7,136162,113088
1763,509,7,136193,113075
1765,507,7,136217,113075
1768,505,7,136239,113093
1770,504,7,136253,113094
1773,505,7,136253,113095
1775,512,7,136291,113101
1777,516,7,136304,113101
1780,515,7,136327,113117
1782,510,7,136327,113125
1785,508,7,136344,113137
1787,508,7,136383,113137
1790,507,7,136404,113141
1793,509,7,136423,113155
1795,513,7,136423,113159
1798,517,7,136452,113158
1800,517,7,136470,113158
1803,512,7,136492,113182
1805,506,7,136492,113184
1808,506,7,136508,113189
1810,506,7,136536,113189
1813,507,7,136555,113199
1815,516,7,136567,113206
1817,517,7,136567,113206
1820,517,7,136596,113214
1822,515,7,136614,113214
1825,512,7,136628,113227
1827,509,7,136628,113227
1830,508,7,136660,113226
1832,510,7,136671,113226
1835,514,7,136692,113241
1838,521,7,136686,113255
1840,521,7,136698,113255
1843,517,7,136721,113253
1845,511,7,136721,113265
1848,510,7,136735,113262
1850,511,7,136751,113262
1853,512,7,136768,113269
1855,518,7,136768,113275
1857,521,7,136777,113288
1860,520,7,136796,113288
1862,515,7,136795,113288
1865,511,7,136795,113299
1867,508,7,136795,113295
1870,506,7,136836,113303
1872,507,7,136838,113303
1874,510,7,136850,113302
1878,516,7,136861,113301
1880,516,7,136844,113301
1883,511,7,136844,113311
1885,508,7,136841,113319
1888,508,7,136894,113319
1890,507,7,136899,113315
1893,508,7,136908,113321
1895,517,7,136908,113334
1897,521,7,136914,113329
1900,521,7,136929,113329
1902,518,7,136893,113326
1905,515,7,136893,113334
1907,515,7,136909,113342
1910,514,7,136947,113342
1912,516,7,136960,113342
1914,519,7,136970,113352
1917,526,7,136970,113349
1920,525,7,136970,113352
1923,522,7,136969,113352
1925,519,7,136990,113356
1928,518,7,136990,113357
1930,517,7,137000,113357
1933,520,7,137000,113364
1935,524,7,136996,113366
1937,526,7,137005,113366
1940,525,7,137023,113366
1942,523,7,137029,113370
1945,518,7,137029,113375
1947,514,7,137039,113377
1950,512,7,137042,113377
1952,510,7,137044,113378
1954,513,7,137044,113383
1957,516,7,137057,113384
1959,515,7,137060,113384
1963,511,7,137092,113391
1965,507,7,137079,113400
1968,502,7,137079,113396
1970,499,7,137089,113394
1973,500,7,137086,113394
1975,503,7,137091,113397
1977,507,7,137098,113399
1980,509,7,137106,113404
1982,503,7,137110,113406
1985,499,7,137126,113413
1987,496,7,137126,113399
1990,493,7,137117,113408
1992,494,7,137127,113411
1994,498,7,137127,113419
1997,503,7,137142,113418
1999,501,7,137144,113415
2002,497,7,137148,113427
2004,493,7,137148,113418
2008,490,7,137149,113427
2010,491,7,137149,113427
2013,493,7,137158,113428
2015,498,7,137163,113433
2017,501,7,137172,113429
2020,501,7,137176,113433
2022,498,7,137192,113433
2025,496,7,137184,113440
2027,495,7,137198,113441
2030,494,7,137199,113441
2032,496,7,137213,113444
2034,500,7,137209,113432
2037,503,7,137208,113435
2039,503,7,137207,113441
2042,499,7,137223,113448
2044,494,7,137220,113459
2048,492,7,137225,113457
2050,491,7,137237,113450
2053,492,7,137244,113458
2055,500,7,137256,113455
2057,502,7,137257,113462
2060,502,7,137259,113458
2062,500,7,137263,113466
2065,496,7,137265,113466
2067,494,7,137277,113473
2070,492,7,137286,113472
2072,494,7,137284,113474
2074,498,7,137288,113471
2077,502,7,137294,113473
2079,503,7,137300,113482
2082,499,7,137323,113482
2084,494,7,137316,113483
2087,494,7,137329,113484
2089,495,7,137322,113488
2093,496,7,137338,113492
2095,503,7,137332,113496
2097,504,7,137333,113499
2100,504,7,137340,113499
2102,503,7,137351,113496
2105,500,7,137350,113495
2107,497,7,137354,113499
2110,494,7,137372,113504
2112,495,7,137373,113513
2114,500,7,137378,113519
2117,507,7,137392,113515
2119,513,7,137405,113512
2122,520,7,137397,113517
2124,537,7,137408,113519
2127,549,7,137418,113522
2129,565,7,137416,113536
2132,577,7,137429,113531
2135,591,7,137425,113533
2137,588,7,137427,113540
2140,582,7,137442,113538
2142,568,7,137447,113529
2145,544,7,137457,113528
2147,529,7,137467,113545
2150,509,7,137474,113542
2152,484,7,137477,113551
2154,481,7,137477,113550
2157,481,7,137491,113554
2159,480,7,137497,113564
2162,475,7,137502,113565
2164,473,7,137514,113569
2167,474,7,137522,113570
2169,480,7,137518,113549
2172,483,7,137536,113576
2174,487,7,137538,113573
2177,491,7,137550,113574
2180,492,7,137554,113581
2182,487,7,137558,113587
2185,482,7,137571,113591
2187,482,7,137581,113594
2190,482,7,137583,113592
2192,488,7,137594,113598
2194,493,7,137604,113601
2197,496,7,137618,113606
2199,496,7,137615,113594
2202,491,7,137629,113608
2204,489,7,137633,113607
2207,487,7,137638,113617
2209,486,7,137650,113612
2212,487,7,137655,113621
2214,495,7,137674,113627
2216,500,7,137670,113631
2220,501,7,137690,113634
2222,497,7,137697,113639
2225,493,7,137697,113642
2227,492,7,137716,113645
2230,492,7,137718,113645
2232,494,7,137743,113666
2234,497,7,137740,113656
2237,504,7,137754,113653
2239,504,7,137754,113670
2242,500,7,137767,113667
2244,497,7,137773,113667
2247,496,7,137780,113673
2249,494,7,137796,113673
2252,496,7,137796,113681
2254,503,7,137804,113675
2256,507,7,137813,113675
2259,506,7,137830,113686
2262,502,7,137835,113692
2265,500,7,137835,113707
2267,500,7,137849,113696
2270,500,7,137853,113696
2272,503,7,137863,113713
2274,507,7,137863,113712
2277,511,7,137874,113710
2279,511,7,137888,113710
2282,508,7,137898,113718
2284,503,7,137898,113727
2287,503,7,137901,113725
2289,503,7,137917,113725
2292,504,7,137927,113730
2294,513,7,137928,113735
2296,514,7,137928,113734
2299,514,7,137941,113738
2301,512,7,137944,113738
2305,509,7,137960,113746
2307,506,7,137961,113748
2310,505,7,137968,113749
2312,507,7,137968,113749
2314,514,7,137969,113754
2317,519,7,137981,113760
2319,517,7,137981,113768
2322,514,7,137996,113761
2324,513,7,137996,113761
2327,512,7,138004,113766
2329,511,7,138004,113770
2332,514,7,138011,113764
2334,517,7,138012,113764
2336,521,7,138023,113769
2339,521,7,138016,113771
2341,519,7,138021,113771
2344,515,7,138023,113765
2347,514,7,138023,113768
2350,516,7,138011,113760
2352,519,7,137986,113760
2354,523,7,137969,113747
2357,530,7,137969,113736
2359,529,7,137951,113718
2362,527,8,137852,113718
2364,524,7,137810,113705
2367,522,7,137771,113691
2369,521,7,137771,113631
2372,523,7,137625,113605
2374,527,7,137548,113605
2376,530,7,137459,113574
2379,531,7,137459,113504
2381,528,7,137364,113466
2384,525,7,137114,113466
2386,524,7,137051,113429
2390,521,7,137051,113352
2392,523,7,136938,113311
2394,526,7,136683,113311
2397,530,7,136683,113233
2399,528,7,136617,113196
2402,524,7,136371,113196
2404,520,7,136309,113163
2407,515,7,136309,113099
2409,511,7,136212,113073
2412,512,7,136031,113073
2414,514,7,136031,113016
2416,516,7,135958,112993
2419,515,7,135841,112993
2421,510,7,135795,112978
2424,501,7,135795,112948
2426,497,7,135750,112937
2429,496,7,135711,112937
2432,496,7,135651,112922
2434,504,7,135651,112901
2437,506,8,135596,112901
2439,506,7,135582,112897
2442,497,7,135582,112881
2444,494,7,135585,112873
2447,492,7,135548,112873
2449,491,7,135535,112870
2452,491,7,135535,112866
2454,498,7,135532,112867
2456,500,7,135525,112867
2459,500,7,135528,112859
2461,498,7,135518,112863
2464,497,7,135523,112861
2466,494,7,135528,112856
2469,493,7,135535,112864
2471,494,7,135538,112873
2473,498,7,135538,112871
2477,502,7,135545,112873
2479,503,7,135556,112873
2482,500,7,135569,112877
2484,499,7,135576,112883
2487,498,7,135588,112883
2489,497,7,135620,112886
2492,499,8,135626,112896
2494,503,7,135632,112906
2496,508,7,135642,112900
2499,510,7,135666,112911
2501,506,7,135677,112913
2504,502,7,135699,112925
2506,501,7,135727,112936
2509,500,7,135745,112937
2511,503,7,135781,112941
2513,508,7,135793,112957
2516,511,7,135803,112963
2519,512,7,135826,112968
2522,509,7,135854,112980
2524,503,7,135870,112981
2527,502,7,135878,112984
2529,501,7,135911,112996
2532,501,7,135927,113005
2534,510,7,135944,113007
2536,512,7,135964,113012
2539,512,7,135977,113025
2541,510,7,136012,113034
2544,507,7,136032,113036
2546,504,7,136045,113046
2549,502,7,136057,113048
2551,504,7,136078,113057
2553,508,7,136090,113060
2556,512,7,136107,113062
2558,512,7,136121,113077
2562,509,7,136133,113080
2564,505,7,136150,113087
2567,503,7,136161,113088
2569,501,7,136173,113094
2572,503,7,136185,113094
2574,508,7,136208,113096
2576,512,7,136219,113110
2579,512,7,136234,113105
2581,507,7,136245,113114
2584,505,7,136254,113123
2586,504,7,136272,113127
2589,505,7,136274,113124
2591,506,7,136300,113130
2593,509,7,136312,113143
2596,514,7,136329,113144
2598,515,7,136344,113149
2601,511,7,136356,113158
2604,504,7,136373,113148
2607,503,7,136378,113158
2609,504,7,136390,113162
2612,505,7,136414,113165
2614,512,7,136422,113180
2616,512,7,136425,113182
2619,512,7,136447,113177
2621,510,7,136462,113179
2624,506,7,136470,113188
2626,503,7,136469,113185
2629,500,7,136480,113188
2631,500,7,136480,113185
2633,504,7,136494,113201
2636,507,7,136488,113201
2638,508,7,136495,113201
2641,505,7,136490,113206
2643,500,7,136495,113206
2647,500,7,136498,113199
2649,501,7,136496,113201
2652,503,7,136493,113199
2654,506,7,136479,113191
2656,509,7,136465,113164
2659,507,7,136454,113157
2661,503,7,136461,113183
2664,500,7,136444,113180
2666,498,7,136440,113175
2669,497,7,136428,113177
2671,499,7,136409,113165
2673,506,7,136398,113157
2676,510,7,136386,113161
2678,511,7,136371,113161
2681,504,7,136358,113143
2683,500,7,136350,113141
2686,499,7,136334,113137
2689,501,7,136316,113123
2692,502,7,136303,113122
2694,508,7,136284,113119
2696,513,7,136264,113115
2699,511,7,136257,113111
2701,508,7,136247,113110
2704,505,7,136230,113101
2706,501,7,136219,113102
2709,500,7,136215,113091
2711,506,7,136198,113089
2713,510,7,136198,113091
2716,515,7,136179,113085
2718,514,7,136164,113087
2721,509,7,136168,113076
2723,505,7,136148,113068
2726,504,7,136138,113064
2728,501,7,136128,113069
2732,502,7,136128,113065
2734,508,7,136127,113068
2736,512,7,136118,113068
2739,510,7,136130,113066
2741,506,7,136126,113063
2744,504,7,136126,113074
2746,504,7,136130,113063
2749,503,7,136121,113063
2751,504,7,136129,113079
2753,508,7,136129,113067
2756,511,7,136126,113073
2758,511,7,136145,113073
2761,507,7,136162,113081
2763,500,7,136165,113079
2766,499,7,136165,113083
2768,500,7,136185,113087
2771,501,7,136188,113087
2774,507,7,136204,113099
2776,508,7,136204,113102
2779,508,7,136220,113107
2781,506,7,136242,113107
2784,503,7,136269,113110
2786,499,7,136271,113118
2789,498,7,136276,113132
2791,499,7,136276,113130
2793,506,7,136298,113135
2796,511,7,136319,113141
2798,508,7,136319,113153
2801,505,7,136358,113154
2803,503,7,136376,113154
2806,502,7,136405,113161
2808,501,7,136417,113166
2811,501,7,136426,113174
2813,507,7,136445,113176
2816,510,8,136455,113176
2819,510,7,136476,113189
2821,505,7,136476,113194
2824,501,7,136497,113196
2826,501,7,136521,113196
2829,499,7,136542,113214
2831,498,7,136542,113226
2833,502,7,136556,113226
2836,504,7,136600,113226
2838,503,7,136625,113237
2841,498,7,136630,113249
2843,489,7,136630,113256
2846,486,7,136669,113260
2848,481,7,136669,113267
2851,481,7,136699,113276
2853,483,7,136717,113276
2855,483,7,136723,113281
2859,480,7,136736,113288
2861,476,7,136765,113288
2864,468,7,136765,113307
2866,465,7,136783,113311
2869,463,7,136785,113311
2871,463,7,136845,113313
2873,465,7,136849,113326
2876,472,7,136849,113331
2878,471,7,136859,113336
2881,468,7,136844,113336
2883,466,7,136906,113341
2886,465,7,136906,113351
2888,465,7,136921,113360
2891,467,7,136908,113360
2893,473,7,136908,113361
2895,476,7,136930,113372
2898,476,7,136977,113372
2900,472,7,136985,113383
2904,464,7,136985,113387
2906,459,7,137010,113391
2909,456,7,137016,113391
2911,456,7,137039,113392
2913,464,7,137039,113403
2916,467,7,137050,113403
2918,467,7,137054,113405
2921,460,7,137054,113412
2923,457,7,137077,113417
2926,457,7,137099,113417
2928,456,7,137104,113416
2931,456,7,137104,113429
2933,460,7,137106,113426
2935,467,7,137129,113426
2938,468,7,137159,113434
2940,466,7,137154,113441
2944,458,7,137154,113440
2946,453,7,137161,113448
2949,452,7,137155,113448
2951,452,7,137170,113445
2953,457,7,137180,113458
2956,462,7,137193,113457
2958,461,7,137202,113466
2961,457,7,137212,113458
2963,452,7,137212,113471
2966,449,7,137227,113479
2968,445,7,137237,113474
2971,445,7,137250,113474
2973,450,7,137252,113485
2975,456,7,137266,113490
2978,457,7,137288,113497
2980,451,7,137304,113486
2983,448,7,137304,113498
2985,446,7,137296,113499
2989,444,7,137304,113497
2991,443,7,137312,113501
2993,447,7,137314,113506
2996,453,7,137319,113505
2998,456,7,137336,113516
3001,453,7,137338,113511
3003,450,7,137354,113510
3006,449,7,137364,113518
3008,448,7,137373,113519
3011,450,7,137375,113528
3013,454,7,137378,113523
3015,457,7,137390,113535
3018,459,7,137393,113532
3020,456,7,137394,113533
3023,451,7,137406,113543
3025,446,7,137405,113544
3028,446,7,137420,113546
3031,449,7,137424,113549
3033,453,7,137429,113546
3036,460,7,137440,113551
3038,459,7,137453,113558
3041,456,7,137446,113556
3043,454,7,137445,113554
3046,453,7,137451,113557
3048,451,6,137453,113560
3051,450,7,137466,113564
3053,456,7,137465,113560
3055,458,7,137471,113559
3058,459,7,137478,113564
3060,457,7,137475,113566
3063,453,7,137478,113573
3065,453,7,137487,113574
3068,454,7,137486,113574
3070,457,7,137495,113580
3073,461,7,137504,113580
3076,465,7,137517,113583
3078,467,7,137520,113587
3081,465,7,137529,113583
3083,462,7,137531,113590
3086,463,7,137523,113596
3088,464,7,137528,113585
3091,465,7,137537,113591
3093,474,7,137540,113589
3095,475,7,137541,113596
3098,476,7,137543,113601
3100,475,7,137555,113597
3103,473,7,137547,113599
3105,472,7,137551,113600
3108,474,7,137555,113597
3110,488,7,137560,113603
3112,500,7,137561,113606
3116,518,7,137562,113604
3118,533,7,137572,113603
3121,545,7,137567,113607
3123,550,7,137573,113609
3126,548,7,137583,113609
3128,542,7,137584,113609
3131,533,7,137585,113613
3133,517,7,137598,113620
3135,505,7,137600,113621
3138,494,7,137599,113623
3140,477,7,137603,113604
3143,465,7,137612,113604
3145,446,7,137610,113630
3148,439,7,137618,113630
3150,436,7,137633,113634
3152,438,7,137628,113642
3155,442,7,137639,113642
3158,443,7,137642,113638
3161,440,7,137642,113641
3163,434,7,137650,113646
3166,434,7,137650,113645
3168,435,7,137666,113653
3171,435,7,137669,113650
3173,439,7,137672,113653
3175,440,7,137680,113659
3178,439,7,137689,113659
3180,438,7,137696,113641
3183,434,7,137702,113656
3185,431,7,137716,113665
3188,430,7,137712,113668
3190,432,7,137727,113670
3192,438,7,137728,113672
3195,441,7,137734,113672
3197,442,7,137739,113678
3201,436,7,137749,113684
3203,433,7,137756,113684
3206,432,7,137756,113684
3208,433,7,137764,113686
3211,434,7,137785,113686
3213,445,7,137798,113707
3215,448,7,137804,113701
3218,451,7,137805,113703
3220,449,7,137813,113716
3223,447,7,137820,113716
3225,446,7,137833,113728
3228,443,7,137833,113717
3230,443,7,137849,113721
3232,446,7,137855,113721
3235,453,7,137867,113732
3237,452,7,137879,113731
3240,449,7,137872,113747
3243,448,7,137872,113736
3246,448,7,137899,113731
3248,446,7,137904,113732
3251,446,7,137904,113740
3253,451,7,137906,113737
3255,456,7,137914,113737
3258,457,7,137932,113766
3260,452,7,137942,113749
3263,451,7,137941,113759
3265,450,7,137941,113761
3268,451,7,137942,113761
3270,455,7,137962,113765
3272,458,7,137962,113768
3275,462,7,137974,113769
3277,463,7,137978,113769
3280,460,7,137983,113774
3282,455,7,137983,113771
3286,455,7,137977,113772
3288,455,7,137989,113772
3291,456,7,138000,113775
3293,466,7,138001,113779
3295,467,7,138001,113788
3298,468,7,138015,113787
3300,467,7,138012,113787
3303,464,7,138016,113788
3305,462,7,138016,113777
3308,461,7,138026,113790
3310,461,7,138034,113790
3312,464,7,138037,113795
3315,469,7,138037,113795
3317,471,7,138036,113804
3320,470,7,138049,113800
3322,466,7,138049,113804
3325,466,7,138051,113807
3328,467,7,138046,113807
3331,468,7,138053,113803
3333,476,7,138053,113802
3335,481,7,138045,113798
3338,482,7,138040,113798
3340,479,7,138031,113803
3343,474,7,138025,113802
3345,474,7,138025,113802
3348,474,7,138013,113781
3350,477,7,138013,113780
3352,484,7,137987,113770
3355,490,7,137938,113757
3357,488,7,137938,113738
3360,488,7,137857,113738
3362,487,7,137794,113717
3365,487,7,137758,113707
3367,484,7,137758,113648
3371,485,7,137612,113621
3373,489,7,137541,113621
3375,493,7,137454,113598
3378,494,7,137454,113528
3380,490,7,137361,113499
3383,487,7,137137,113499
3385,486,7,137047,113461
3388,482,7,137047,113391
3390,482,7,136867,113391
3392,488,7,136867,113318
3395,489,7,136767,113280
3397,488,7,136666,113280
3400,485,7,136479,113243
3402,482,7,136358,113214
3405,480,7,136358,113152
3407,476,7,136275,113123
3410,476,7,136117,113123
3412,477,7,136051,113101
3415,480,7,135988,113082
3418,478,7,135988,113031
3420,473,7,135929,113024
3423,470,7,135848,113024
3425,468,7,135816,113004
3428,466,7,135816,112976
3430,465,7,135780,112967
3432,470,7,135738,112967
3435,474,7,135715,112957
3437,476,7,135715,112950
3440,471,7,135679,112943
3442,469,7,135655,112934
3445,469,7,135647,112934
3447,468,7,135644,112931
3450,468,7,135633,112922
3452,474,7,135639,112932
3454,481,7,135649,112928
3458,483,7,135642,112928
3460,477,7,135645,112921
3463,474,7,135627,112922
3465,473,7,135627,112926
3468,473,7,135628,112929
3470,471,7,135629,112926
3472,480,7,135646,112926
3475,485,7,135652,112935
3477,489,7,135666,112928
3480,488,7,135687,112938
3482,482,7,135699,112941
3485,481,7,135707,112940
3487,480,7,135712,112951
3490,479,7,135725,112963
3492,485,7,135741,112969
3494,492,7,135760,112980
3497,495,7,135789,112985
3500,490,7,135807,112989
3503,488,7,135823,112997
3505,487,7,135850,113004
3508,487,7,135874,113008
3510,490,7,135900,113018
3512,495,7,135917,113026
3515,500,7,135924,113031
3517,501,7,135957,113041
3520,499,7,135979,113043
3522,496,7,136007,113056
3525,494,7,136032,113069
3527,492,7,136047,113080
3530,494,7,136069,113081
3532,500,7,136096,113088
3534,504,7,136114,113102
3537,507,7,136143,113102
3539,503,7,136160,113121
3543,501,7,136181,113122
3545,501,7,136212,113132
3548,500,7,136236,113139
3550,502,7,136258,113147
3552,508,7,136282,113148
3555,516,7,136290,113160
3557,515,7,136307,113155
3560,513,7,136326,113162
3562,512,7,136335,113173
3565,511,7,136356,113188
3567,510,7,136387,113191
3570,509,7,136404,113196
3572,517,7,136426,113204
3574,520,7,136436,113215
3577,521,7,136465,113219
3579,518,7,136479,113230
3582,514,7,136500,113223
3585,514,7,136511,113239
3588,513,7,136536,113245
3590,513,7,136547,113245
3592,516,7,136562,113265
3595,520,7,136580,113268
3597,520,7,136602,113269
3600,518,7,136613,113273
3602,512,7,136631,113274
3605,512,7,136646,113290
3607,512,7,136658,113293
3610,511,7,136672,113294
3612,518,7,136675,113294
3614,519,7,136678,113299
3617,519,7,136681,113298
3619,520,7,136680,113286
3622,516,7,136677,113287
3624,513,7,136688,113301
3628,510,7,136683,113299
3630,510,7,136676,113298
3632,517,7,136679,113294
3635,522,7,136669,113284
3637,523,7,136650,113289
3640,517,7,136641,113281
3642,512,7,136634,113281
3645,512,7,136613,113268
3647,513,7,136595,113237
3650,515,7,136584,113258
3652,518,7,136571,113256
3654,524,7,136544,113248
3657,526,7,136526,113231
3659,523,7,136508,113228
3662,520,7,136488,113218
3664,517,7,136462,113213
3667,516,7,136445,113201
3670,521,7,136413,113196
3672,527,7,136397,113190
3675,530,7,136369,113187
3677,533,7,136357,113170
3680,529,7,136338,113168
3682,527,7,136306,113155
3685,526,7,136292,113154
3687,525,7,136271,113144
3690,525,7,136255,113136
3692,532,7,136240,113143
3694,536,7,136240,113133
3697,539,7,136202,113121
3699,536,7,136178,113117
3702,533,7,136178,113107
3704,531,7,136153,113100
3707,530,7,136134,113100
3709,532,7,136134,113108
3712,536,7,136113,113088
3715,544,7,136100,113088
3717,545,7,136100,113099
3720,542,7,136099,113084
3722,539,7,136089,113085
3725,537,7,136089,113080
3727,536,7,136091,113084
3730,536,7,136086,113084
3732,544,7,136105,113081
3734,546,7,136088,113080
3737,549,7,136099,113099
3739,548,7,136099,113086
3742,545,7,136100,113082
3744,544,7,136111,113082
3747,543,7,136128,113102
3749,544,7,136128,113097
3751,548,8,136128,113107
3755,555,7,136145,113100
3757,557,7,136156,113100
3760,552,7,136164,113113
3762,548,7,136164,113113
3765,548,7,136180,113121
3767,548,7,136198,113121
3770,548,7,136221,113124
3772,556,7,136236,113139
3774,557,8,136236,113144
3777,559,8,136256,113147
3779,557,7,136273,113147
3782,554,8,136300,113153
3784,551,8,136311,113165
3787,550,7,136323,113169
3789,549,7,136323,113177
3791,556,7,136339,113185
3794,563,8,136377,113192
3796,560,7,136377,113200
3800,558,8,136417,113200
3802,557,7,136433,113200
3805,556,7,136450,113208
3807,555,8,136450,113223
3810,556,8,136478,113227
3812,558,8,136507,113227
3814,560,8,136528,113237
3817,559,8,136539,113244
3819,556,7,136543,113244
3822,552,7,136562,113246
3824,549,8,136562,113259
3827,549,7,136591,113267
3829,551,8,136621,113267
3831,554,7,136635,113278
3834,561,7,136635,113277
3836,561,7,136660,113290
3840,557,8,136666,113290
3842,552,8,136705,113294
3845,547,7,136705,113306
3847,546,8,136705,113306
3850,544,8,136750,113313
3852,545,8,136750,113314
3854,546,8,136765,113328
3857,546,8,136801,113328
3859,542,8,136762,113331
3862,538,8,136762,113338
3864,538,7,136784,113340
3867,538,8,136838,113340
3869,540,8,136857,113343
3871,544,8,136865,113357
3874,554,8,136865,113358
3876,555,7,136884,113367
3879,552,7,136888,113367
3881,550,8,136906,113360
3885,548,7,136906,113378
3887,547,8,136921,113378
3890,547,7,136921,113384
3892,552,8,136930,113386
3894,556,8,136947,113386
3897,559,8,136965,113387
3899,558,8,136972,113394
3902,554,8,136972,113404
3904,554,8,136987,113414
3907,553,8,137002,113414
3909,554,8,137004,113416
3911,557,8,137004,113410
3914,562,8,137010,113418
3916,565,8,137030,113418
3919,564,8,137046,113416
3921,563,8,137048,113427
3924,561,8,137048,113431
3927,559,7,137062,113436
3930,561,7,137061,113436
3932,566,8,137068,113430
3934,571,8,137076,113435
3937,575,8,137078,113441
3939,571,8,137093,113447
3942,567,8,137098,113446
3944,565,8,137098,113447
3947,563,8,137112,113457
3949,561,8,137116,113461
3951,567,8,137125,113461
3954,571,8,137129,113456
3956,574,8,137149,113455
3959,572,8,137154,113459
3961,565,8,137165,113460
3964,563,8,137168,113463
3966,561,8,137159,113461
3970,558,8,137158,113464
3972,563,8,137168,113471
3974,571,8,137185,113478
3977,571,8,137177,113475
3979,569,8,137187,113475
3982,565,8,137202,113473
3984,564,8,137211,113483
3987,562,8,137206,113485
3989,564,8,137209,113477
3991,568,7,137211,113477
3994,578,8,137221,113487
3996,578,8,137218,113486
3999,575,8,137226,113494
4001,573,8,137222,113484
4004,571,8,137239,113494
4006,569,8,137235,113497
4009,569,8,137241,113498
4012,572,8,137256,113503
4014,574,8,137257,113501
4017,571,8,137265,113504
4019,565,8,137269,113509
4022,561,8,137272,113515
4024,559,8,137279,113509
4027,555,8,137283,113513
4029,555,8,137273,113511
4031,557,8,137281,113516
4034,561,8,137290,113507
4036,562,8,137303,113518
4039,555,8,137308,113517
4041,552,8,137312,113529
4044,551,8,137320,113533
4046,552,8,137322,113536
4049,554,8,137333,113536
4051,573,8,137328,113530
4054,583,8,137336,113533
4057,596,8,137348,113543
4059,607,8,137357,113547
4062,616,7,137368,113541
4064,629,8,137356,113550
4067,634,8,137360,113555
4069,630,8,137376,113552
4071,625,8,137382,113560
4074,617,8,137394,113556
4076,604,8,137411,113566
4079,583,7,137415,113564
4081,549,8,137411,113564
4084,537,8,137423,113578
4086,527,8,137429,113572
4089,521,8,137445,113572
4091,527,8,137443,113586
4093,529,8,137445,113585
4097,532,8,137458,113587
4099,534,7,137468,113582
4102,534,8,137475,113589
4104,532,8,137486,113600
4107,530,7,137499,113604
4109,530,8,137501,113609
4111,537,8,137517,113605
4114,542,7,137518,113613
4116,544,8,137525,113623
4119,538,8,137545,113621
4121,534,7,137558,113631
4124,533,7,137560,113630
4126,535,7,137575,113610
4129,537,8,137601,113651
4131,539,8,137599,113648
4133,544,8,137611,113656
4136,546,8,137618,113652
4139,543,7,137627,113656
4142,539,7,137649,113662
4144,536,7,137660,113674
4147,536,7,137664,113679
4149,540,8,137682,113677
4151,546,8,137683,113684
4154,548,8,137699,113684
4156,550,7,137712,113669
4159,546,8,137722,113680
4161,543,7,137734,113691
4164,543,7,137743,113692
4166,541,7,137759,113699
4169,540,7,137753,113704
4171,547,8,137777,113710
4173,552,8,137793,113716
4176,553,7,137801,113720
4178,550,8,137814,113720
4182,545,8,137808,113728
4184,543,8,137832,113726
4187,542,8,137832,113733
4189,544,8,137843,113740
4191,548,7,137851,113740
4194,556,8,137879,113762
4196,556,7,137880,113745
4199,553,7,137888,113759
4201,549,7,137889,113755
4204,547,8,137902,113777
4206,546,8,137917,113764
4209,547,8,137924,113771
4211,555,7,137935,113768
4213,558,8,137935,113774
4216,559,8,137942,113781
4218,554,8,137958,113791
4221,550,8,137958,113783
4224,549,8,137967,113792
4227,549,8,137978,113792
4229,550,7,137981,113808
4231,554,8,137981,113794
4234,558,8,137997,113799
4236,559,7,138003,113799
4239,556,8,138019,113812
4241,550,8,138018,113806
4244,549,8,138018,113813
4246,549,7,138025,113813
4249,550,7,138033,113813
4251,557,7,138045,113823
4253,558,7,138045,113824
4256,559,8,138057,113826
4258,558,8,138060,113826
4261,555,7,138061,113825
4263,552,8,138061,113830
4267,549,8,138058,113833
4269,550,8,138060,113826
4271,553,8,138048,113826
4274,560,8,138057,113825
4276,561,8,138030,113825
4279,559,7,138032,113812
4281,554,7,138032,113804
4284,554,8,137995,113790
4286,554,8,137945,113790
4289,553,8,137904,113774
4291,561,8,137844,113732
4293,562,8,137844,113710
4296,563,8,137706,113678
4298,562,8,137615,113678
4301,559,8,137533,113644
4303,556,8,137533,113571
4306,553,8,137340,113537
4308,553,8,137229,113537
4311,555,8,137129,113498
4314,561,8,137019,113417
4316,561,8,136890,113417
4319,556,8,136890,113341
4321,553,8,136785,113308
4324,552,8,136564,113308
4326,548,8,136564,113229
4329,548,8,136465,113188
4331,551,8,136225,113161
4333,552,8,136225,113130
4336,553,8,136077,113130
4338,548,8,136008,113101
4341,544,8,135909,113077
4343,542,8,135909,113035
4346,539,8,135840,113035
4348,538,8,135796,113015
4350,539,8,135748,112999
4354,542,8,135748,112967
4356,540,8,135717,112959
4359,535,8,135661,112959
4361,531,8,135644,112947
4364,525,7,135644,112935
4366,524,8,135597,112935
4369,524,8,135597,112928
4371,528,7,135592,112918
4373,530,8,135575,112918
4376,533,8,135565,112910
4378,531,8,135540,112915
4381,527,8,135540,112908
4383,525,7,135543,112897
4386,524,7,135540,112897
4388,524,8,135529,112898
4390,527,8,135536,112901
4393,534,8,135536,112902
4396,533,7,135536,112898
4399,531,7,135557,112898
4401,528,8,135557,112904
4404,526,8,135551,112906
4406,524,8,135562,112912
4409,526,8,135571,112912
4411,531,7,135593,112914
4413,539,7,135593,112924
4416,537,7,135597,112923
4418,533,8,135603,112924
4421,530,7,135620,112932
4423,529,7,135618,112933
4426,528,7,135640,112933
4428,528,7,135653,112940
4430,533,7,135676,112941
4433,540,7,135690,112951
4435,541,7,135705,112957
4439,538,7,135741,112966
4441,535,7,135741,112972
4444,532,7,135746,112972
4446,528,7,135763,112980
4449,529,8,135803,112987
4451,533,7,135797,113000
4453,537,7,135813,113002
4456,539,7,135856,113005
4458,534,8,135869,113007
4461,531,7,135877,113018
4463,529,7,135891,113026
4466,527,8,135895,113027
4468,525,8,135902,113023
4470,527,7,135918,113037
4473,532,7,135929,113043
4475,533,7,135946,113045
4478,529,7,135956,113051
4481,526,7,135975,113052
4484,524,7,135991,113053
4486,522,7,135998,113058
4489,521,7,136003,113056
4491,528,7,136018,113056
4493,531,7,136021,113069
4496,532,7,136012,113064
4498,530,7,136023,113066
4501,524,7,136029,113073
4503,522,7,136031,113068
4506,521,7,136045,113071
4508,523,7,136043,113081
4510,526,7,136058,113080
4513,529,7,136061,113075
4515,529,7,136062,113078
4518,526,7,136070,113087
4520,522,7,136071,113087
4524,519,7,136082,113088
4526,514,7,136087,113087
4529,515,7,136096,113101
4531,521,7,136114,113096
4533,525,7,136129,113106
4536,527,7,136131,113105
4538,520,7,136140,113105
4541,518,7,136147,113110
4543,517,7,136155,113114
4546,515,7,136164,113121
4548,514,7,136168,113118
4550,516,7,136171,113126
4553,522,7,136174,113121
4555,519,7,136186,113129
4558,516,7,136192,113119
4560,514,7,136205,113122
4563,513,7,136185,113128
4566,511,7,136194,113130
4569,508,7,136204,113136
4571,513,7,136208,113132
4573,515,7,136195,113131
4576,516,7,136203,113132
4578,512,7,136201,113119
4581,507,7,136200,113115
4583,507,7,136193,113116
4586,506,7,136189,113118
4588,505,7,136183,113117
4590,508,7,136180,113127
4593,511,7,136171,113117
4595,512,7,136178,113120
4598,509,7,136157,113112
4600,502,7,136152,113102
4603,503,7,136141,113099
4605,503,7,136137,113102
4609,503,7,136122,113100
4611,509,7,136113,113095
4613,510,7,136111,113097
4616,510,7,136094,113083
4618,509,7,136096,113054
4621,506,7,136075,113049
4623,503,7,136079,113084
4626,501,7,136069,113077
4628,501,7,136058,113075
4630,507,7,136041,113062
4633,511,7,136034,113055
4635,512,7,136025,113062
4638,506,7,136014,113064
4640,502,7,136019,113061
4643,501,7,136010,113061
4645,501,7,135993,113039
4648,501,7,135986,113050
4651,507,7,135981,113039
4653,512,7,135972,113045
4656,509,7,135978,113038
4658,504,7,135965,113035
4661,501,7,135966,113034
4663,496,7,135967,113038
4666,496,7,135965,113032
4668,500,7,135958,113038
4670,504,7,135958,113041
4673,509,7,135963,113037
4675,509,7,135967,113043
4678,504,7,135983,113034
4680,501,7,135963,113034
4683,500,7,135969,113034
4685,497,7,135975,113043
4688,498,7,135975,113045
4690,504,7,135986,113040
4692,508,7,135991,113040
4696,508,7,136007,113052
4698,504,7,136007,113043
4701,501,7,136007,113055
4703,500,7,136020,113046
4706,499,7,136037,113046
4708,499,7,136043,113082
4710,503,7,136043,113070
4713,509,7,136069,113077
4715,511,7,136088,113077
4718,509,7,136093,113088
4720,505,7,136098,113089
4723,504,7,136098,113090
4725,506,7,136136,113096
4728,507,7,136149,113096
4730,518,7,136158,113114
4732,521,7,136158,113111
4736,523,7,136192,113121
4738,521,7,136202,113121
4741,519,7,136231,113124
4743,517,7,136231,113136
4746,516,7,136249,113139
4748,517,7,136271,113150
4750,522,7,136285,113159
4753,525,7,136303,113158
4755,527,7,136313,113158
4758,525,7,136340,113168
4760,519,7,136340,113173
4763,519,7,136347,113187
4765,519,7,136389,113187
4768,518,7,136427,113189
4770,526,7,136428,113206
4772,528,7,136428,113213
4775,529,7,136465,113224
4777,528,7,136485,113224
4781,523,7,136502,113229
4783,522,7,136508,113229
4786,519,7,136531,113238
4788,517,7,136531,113253
4790,522,7,136545,113252
4793,526,7,136584,113259
4795,522,7,136584,113260
4798,519,7,136610,113260
4800,518,7,136616,113263
4803,517,7,136639,113272
4805,514,7,136639,113275
4808,514,7,136669,113279
4810,517,7,136683,113279
4812,520,7,136698,113288
4815,519,7,136716,113295
4817,515,7,136723,113295
4820,508,7,136723,113310
4823,507,8,136736,113311
4826,505,7,136744,113317
4828,505,8,136750,113317
4830,507,7,136759,113325
4833,513,7,136759,113331
4835,512,7,136767,113335
4838,508,7,136828,113335
4840,504,7,136848,113338
4843,501,7,136848,113348
4845,500,7,136828,113348
4848,498,7,136874,113354
4850,504,7,136874,113360
4852,509,7,136885,113369
4855,510,7,136874,113369
4857,507,7,136891,113370
4860,501,7,136891,113372
4862,500,7,136895,113370
4866,499,7,136935,113370
4868,499,7,136948,113369
4870,503,7,136956,113381
4873,510,7,136956,113390
4875,508,7,136962,113397
4878,505,7,136973,113397
4880,502,7,136988,113401
4883,500,7,136988,113397
4885,499,7,136995,113413
4888,497,7,137003,113413
4890,503,7,137023,113409
4892,512,7,137023,113411
4895,509,7,137018,113417
4897,504,7,137026,113416
4900,502,7,137033,113422
4902,502,7,137041,113422
4905,501,7,137046,113422
4908,502,7,137045,113426
4910,506,7,137054,113427
4913,512,7,137067,113427
4915,513,7,137071,113437
4918,510,7,137081,113434
4920,506,7,137081,113431
4923,504,7,137079,113442
4925,501,7,137085,113441
4928,501,7,137090,113441
4930,505,7,137088,113435
4932,512,7,137101,113436
4935,515,7,137118,113441
4937,509,7,137127,113444
4940,507,7,137127,113443
4942,505,7,137124,113440
4945,504,7,137111,113443
4947,502,7,137113,113444
4950,505,7,137122,113442
4953,510,7,137124,113448
4955,513,7,137122,113451
4958,510,7,137116,113445
4960,508,7,137126,113451
4963,507,7,137135,113451
4965,505,7,137132,113449
4968,510,7,137141,113453
4970,521,7,137119,113444
4972,532,7,137134,113446
4975,547,7,137139,113451
4977,559,7,137142,113455
4980,569,7,137135,113455
4982,581,7,137145,113450
4985,579,7,137130,113454
4987,575,7,137141,113447
4989,572,7,137135,113450
4993,558,7,137150,113450
4995,547,7,137149,113455
4998,534,7,137133,113453
5000,522,7,137143,113458
5003,507,7,137143,113458
5005,494,7,137142,113457
5008,486,7,137140,113456
5010,490,7,137137,113450
5012,493,7,137148,113458
5015,497,7,137150,113454
5017,496,7,137148,113456
5020,494,7,137144,113459
5022,496,7,137147,113462
5025,499,7,137149,113470
5027,501,7,137147,113468
5029,504,7,137157,113469
5032,508,7,137161,113463
5035,508,7,137174,113468
5038,505,7,137178,113470
5040,499,7,137184,113476
5043,499,7,137186,113481
5045,498,7,137185,113475
5048,498,7,137189,113476
5050,505,7,137190,113478
5052,507,7,137195,113482
5055,508,7,137204,113475
5057,507,7,137211,113486
5060,505,7,137209,113476
5062,503,7,137212,113485
5065,500,7,137226,113489
5067,500,7,137235,113500
5069,504,7,137229,113501
5072,508,7,137238,113503
5074,509,7,137249,113500
5078,507,7,137245,113504
5080,502,7,137262,113506
5083,502,7,137269,113501
5085,502,7,137267,113509
5088,502,7,137281,113513
5090,510,7,137284,113518
5092,511,7,137287,113530
5095,512,7,137297,113524
5097,513,7,137299,113506
5100,510,7,137301,113512
5102,507,7,137315,113532
5105,505,7,137311,113529
5107,505,7,137314,113529
5109,512,7,137314,113527
5112,516,7,137323,113532
5114,517,7,137315,113538
5117,511,7,137331,113532
5120,507,7,137333,113534
5123,506,7,137340,113536
5125,508,7,137338,113522
5128,509,7,137348,113545
5130,514,7,137350,113542
5132,519,7,137342,113543
5135,519,7,137346,113547
5137,516,7,137350,113526
5140,514,7,137353,113529
5142,511,7,137355,113542
5145,510,7,137350,113536
5147,515,7,137351,113544
5149,520,7,137351,113539
5152,525,7,137340,113544
5154,527,7,137343,113540
5157,523,7,137348,113537
5159,520,7,137339,113538
5163,519,7,137334,113539
5165,516,7,137336,113538
5168,517,7,137336,113535
5170,523,7,137330,113536
5172,527,7,137335,113536
5175,527,7,137344,113537
5177,523,7,137328,113528
5180,521,7,137328,113533
5182,522,7,137330,113539
5185,522,7,137316,113539
5187,524,7,137329,113548
5189,527,7,137315,113527
5192,534,7,137312,113526
5194,533,7,137312,113526
5197,531,7,137297,113526
5199,528,7,137284,113526
5202,527,8,137280,113514
5204,524,7,137262,113497
5208,525,7,137262,113499
5210,532,7,137205,113481
5212,536,7,137187,113481
5215,537,7,137149,113455
5217,532,7,137149,113446
5220,531,7,137110,113424
5222,531,7,137015,113424
5225,531,7,136952,113406
5227,532,7,136894,113366
5229,535,7,136894,113339
5232,540,7,136750,113309
5234,540,7,136667,113309
5237,537,7,136600,113261
5239,530,7,136600,113235
5242,530,7,136514,113203
5244,529,7,136352,113203
5248,528,7,136275,113178
5250,532,8,136194,113117
5252,532,7,136194,113095
5255,530,7,136053,113070
5257,527,7,135993,113070
5260,522,7,135929,113054
5262,515,7,135875,113006
5265,513,7,135822,112991
5267,508,7,135822,112980
5269,512,7,135783,112962
5272,515,7,135699,112947
5274,511,7,135699,112929
5277,507,7,135644,112924
5279,505,7,135623,112924
5282,503,8,135586,112919
5284,497,7,135586,112899
5287,497,7,135550,112892
5289,500,7,135545,112892
5292,503,7,135540,112890
5295,503,7,135517,112869
5297,500,7,135494,112869
5300,495,8,135494,112867
5302,494,7,135487,112862
5305,492,8,135482,112862
5307,493,7,135482,112861
5309,499,7,135479,112856
5312,503,7,135465,112856
5314,505,7,135453,112851
5317,501,7,135443,112858
5319,500,7,135471,112858
5322,500,7,135471,112854
5324,500,7,135480,112854
5327,501,7,135440,112854
5329,508,7,135440,112863
5331,512,7,135496,112863
5335,513,7,135499,112863
5337,512,7,135517,112862
5340,506,7,135517,112868
5342,509,7,135523,112869
5345,510,7,135537,112869
5347,513,7,135537,112884
5349,515,7,135549,112884
5352,520,7,135582,112887
5354,521,7,135574,112895
5357,519,7,135574,112900
5359,516,7,135593,112914
5362,514,7,135632,112914
5364,512,7,135658,112912
5367,511,7,135658,112928
5369,514,7,135684,112928
5371,519,7,135684,112934
5374,520,7,135696,112940
5377,515,7,135712,112940
5380,514,7,135753,112955
5382,515,7,135761,112958
5385,514,7,135761,112964
5387,515,7,135779,112967
5389,520,7,135783,112967
5392,525,7,135821,112969
5394,528,7,135844,112989
5397,525,7,135844,112990
5399,522,7,135869,112993
5402,522,7,135873,112993
5404,520,7,135881,113001
5407,519,7,135881,113004
5409,525,7,135900,113012
5411,528,7,135915,113012
5414,528,8,135935,113020
5416,526,7,135939,113026
5420,525,7,135952,113034
5422,521,7,135976,113040
5425,519,7,136008,113035
5427,519,7,136017,113044
5429,522,7,136017,113058
5432,526,7,136032,113058
5434,528,7,136045,113058
5437,526,7,136069,113073
5439,525,7,136085,113067
5442,523,7,136101,113076
5444,519,7,136123,113078
5447,519,7,136136,113083
5449,522,7,136158,113095
5451,526,7,136171,113097
5454,528,7,136186,113105
5456,525,7,136195,113110
5459,522,7,136210,113107
5462,521,7,136232,113112
5465,519,7,136241,113118
5467,519,7,136243,113122
5469,523,7,136251,113116
5472,526,7,136261,113123
5474,527,7,136258,113125
5477,524,7,136262,113132
5479,518,7,136262,113128
5482,516,7,136262,113132
5484,515,7,136280,113134
5487,515,7,136271,113129
5489,520,7,136276,113126
5491,522,7,136270,113125
5494,523,7,136257,113120
5496,521,7,136256,113124
5499,517,7,136250,113115
5501,514,7,136229,113107
5505,512,7,136221,113108
5507,513,7,136206,113104
5509,516,7,136199,113099
5512,519,7,136180,113090
5514,519,7,136168,113083
5517,516,7,136138,113075
5519,510,7,136129,113081
5522,510,7,136112,113069
5524,510,7,136096,113060
5527,509,7,136084,113053
5529,517,7,136046,113047
5531,517,7,136035,113045
5534,518,7,136027,113033
5536,517,7,136019,113034
5539,514,7,135991,113026
5541,511,7,135972,113013
5544,508,7,135958,113012
5547,509,7,135941,113009
5549,511,7,135923,113008
5552,515,7,135921,113002
5554,517,7,135916,113003
5557,514,7,135891,112993
5559,509,7,135888,112995
5562,510,7,135884,112986
5564,510,7,135872,112988
5567,509,7,135864,112987
5569,517,7,135856,112982
5571,518,7,135845,112981
5574,518,7,135846,112976
5576,518,7,135841,112968
5579,515,7,135844,112968
5581,512,7,135843,112970
5584,509,7,135839,112972
5586,508,7,135843,112981
5588,511,7,135846,112980
5592,516,7,135849,112977
5594,517,7,135858,112974
5597,513,7,135859,112986
5599,506,7,135863,112990
5602,508,7,135878,112989
5604,509,7,135885,113000
5607,513,7,135892,112998
5609,518,7,135896,113001
5611,524,7,135905,112980
5614,524,7,135920,112983
5616,520,7,135938,113011
5619,517,7,135939,113017
5621,514,7,135954,113020
5624,512,7,135973,113028
5626,513,7,135981,113033
5628,519,7,135989,113032
5632,523,7,136009,113035
5634,524,7,136023,113043
5637,518,7,136038,113051
5639,515,7,136056,113058
5642,514,7,136068,113054
5644,515,7,136090,113068
5647,515,7,136100,113067
5649,520,7,136112,113071
5651,524,7,136132,113080
5654,523,7,136165,113094
5656,520,7,136165,113097
5659,515,7,136186,113111
5661,514,7,136202,113103
5664,513,7,136202,113120
5666,515,7,136238,113122
5668,518,7,136258,113122
5671,524,7,136279,113150
5673,525,7,136290,113134
5677,522,7,136312,113143
5679,518,7,136313,113138
5682,517,7,136338,113151
5684,515,7,136358,113152
5687,516,7,136358,113160
5689,521,7,136386,113165
5691,525,7,136400,113165
5694,525,7,136420,113184
5696,521,7,136437,113185
5699,520,7,136437,113201
5701,520,7,136469,113196
5704,519,7,136481,113196
5706,520,7,136491,113212
5708,522,7,136491,113211
5711,526,7,136521,113209
5713,526,7,136536,113209
5716,523,7,136560,113225
5719,516,7,136568,113227
5722,514,7,136568,113233
5724,513,7,136594,113246
5727,514,7,136604,113246
5729,520,7,136615,113248
5731,520,7,136615,113251
5734,520,7,136641,113253
5736,517,7,136650,113253
5739,513,7,136666,113256
5741,507,7,136673,113262
5744,505,7,136686,113268
5746,503,7,136686,113271
5748,508,7,136693,113272
5751,513,7,136717,113278
5753,510,7,136717,113289
5756,507,7,136731,113291
5758,506,7,136744,113291
5762,504,7,136764,113295
5764,501,7,136764,113296
5767,502,7,136772,113306
5769,505,7,136796,113306
5771,509,7,136806,113307
5774,509,7,136802,113309
5776,507,7,136806,113309
5779,503,7,136821,113313
5781,500,7,136821,113325
5784,499,7,136838,113328
5786,502,7,136857,113328
5788,505,7,136861,113325
5791,510,7,136861,113335
5793,509,7,136865,113339
5796,505,7,136863,113339
5798,502,7,136888,113346
5801,500,7,136913,113345
5804,499,7,136913,113345
5807,501,7,136919,113354
5809,504,7,136926,113354
5811,507,7,136938,113351
5814,509,7,136938,113358
5816,505,7,136934,113359
5819,502,7,136917,113359
5821,501,7,136922,113358
5824,499,7,136922,113368
5826,499,7,136971,113368
5828,502,7,136977,113375
5831,509,7,136977,113370
5833,509,7,136972,113370
5836,507,7,136953,113370
5838,503,7,136967,113373
5841,501,7,136967,113384
5843,501,7,136994,113387
5847,502,7,136998,113387
5849,507,7,137016,113381
5851,510,7,137019,113385
5854,512,7,137019,113388
5856,508,7,137018,113388
5859,506,7,137016,113388
5861,504,7,137022,113392
5864,503,7,137022,113397
5866,502,7,137028,113394
5868,507,7,137034,113394
5871,512,7,137045,113401
5873,514,7,137045,113400
5876,509,7,137038,113406
5878,506,7,137046,113404
5881,506,7,137050,113404
5883,505,7,137050,113408
5886,508,7,137056,113408
5889,515,7,137063,113405
5891,522,7,137063,113407
5894,529,7,137067,113408
5896,544,7,137058,113408
5899,556,7,137066,113403
5901,570,7,137067,113414
5904,587,7,137067,113410
5906,590,7,137078,113410
5908,593,7,137076,113408
5911,589,7,137071,113408
5913,582,7,137075,113411
5916,568,7,137080,113409
5918,534,7,137078,113412
5921,518,7,137088,113414
5923,504,7,137087,113413
5926,491,7,137087,113423
5928,485,7,137091,113423
5931,490,7,137091,113415
5934,492,7,137101,113421
5936,492,7,137107,113423
5939,491,7,137103,113425
5941,495,7,137114,113423
5944,497,7,137111,113426
5946,499,7,137113,113430
5948,504,7,137119,113430
5951,510,7,137132,113432
5953,514,7,137125,113436
5956,510,7,137131,113433
5958,507,7,137137,113437
5961,506,7,137146,113443
5963,504,7,137148,113443
5966,506,7,137149,113442
5968,512,7,137151,113440
5970,516,7,137159,113440
5974,518,7,137164,113451
5976,516,7,137170,113451
5979,512,7,137165,113460
5981,509,7,137180,113461
5984,509,7,137183,113463
5986,512,7,137200,113454
5988,517,7,137199,113467
5991,522,7,137219,113468
5993,524,7,137225,113471
5996,517,7,137236,113475
5998,515,7,137243,113476
6001,514,7,137242,113482
6003,515,7,137251,113481
6006,515,7,137260,113478
6008,522,7,137257,113485
6010,523,7,137265,113493
6013,523,7,137282,113490
6016,520,7,137284,113492
6019,515,7,137295,113500
6021,515,7,137295,113498
6024,513,7,137303,113493
6026,513,7,137307,113503
6028,516,7,137313,113509
6031,519,7,137327,113507
6033,519,7,137342,113508
6036,516,7,137347,113514
6038,511,7,137357,113523
6041,511,7,137360,113531
6043,510,7,137365,113524
6046,510,7,137376,113523
6048,517,7,137380,113528
6050,518,7,137388,113538
6053,518,7,137402,113532
6055,517,7,137406,113528
6059,513,7,137401,113537
6061,510,7,137418,113527
6064,506,7,137424,113537
6066,506,7,137427,113535
6068,509,7,137423,113556
6071,512,7,137437,113552
6073,513,7,137450,113554
6076,510,7,137449,113552
6078,505,7,137460,113552
6081,505,7,137460,113563
6083,507,7,137469,113561
6086,508,7,137480,113570
6088,514,7,137483,113570
6090,515,7,137499,113577
6093,514,7,137501,113576
6095,514,7,137508,113557
6098,511,7,137511,113556
6100,508,7,137525,113579
6104,507,7,137523,113583
6106,509,7,137517,113580
6108,515,7,137525,113582
6111,519,7,137520,113584
6113,520,7,137507,113576
6116,514,7,137513,113576
6118,511,7,137503,113578
6121,510,7,137490,113567
6123,512,7,137472,113552
6126,513,7,137442,113551
6128,519,7,137410,113528
6130,524,7,137360,113510
6133,523,7,137316,113493
6135,519,7,137257,113472
6138,515,7,137190,113445
6140,514,7,137118,113409
6144,513,7,137118,113388
6146,515,7,136935,113361
6148,518,7,136840,113361
6151,524,7,136745,113296
6153,524,7,136638,113239
6156,520,7,136535,113206
6158,515,7,136422,113164
6161,513,7,136315,113150
6163,512,7,136217,113091
6166,513,7,136118,113060
6168,517,7,136022,113037
6170,519,7,136022,113005
6173,518,7,135871,112980
6175,510,7,135799,112963
6178,503,7,135799,112938
6180,500,7,135684,112919
6183,497,7,135647,112919
6185,495,7,135605,112898
6188,496,7,135605,112866
6191,497,7,135526,112854
6193,495,7,135502,112854
6196,490,7,135484,112844
6198,481,7,135461,112830
6201,479,7,135461,112822
6203,477,7,135424,112818
6206,477,7,135401,112818
6208,483,7,135396,112804
6210,483,7,135396,112794
6213,483,7,135363,112786
6215,480,7,135349,112786
6218,476,7,135349,112788
6220,471,7,135339,112781
6223,470,7,135329,112786
6225,469,7,135329,112772
6227,475,7,135332,112781
6231,480,7,135320,112780
6233,478,7,135320,112766
6236,475,7,135321,112769
6238,473,7,135328,112769
6241,472,7,135340,112772
6243,469,7,135334,112772
6246,469,7,135343,112779
6248,473,7,135348,112774
6250,475,7,135362,112774
6253,478,7,135364,112784
6255,474,7,135364,112789
6258,471,7,135384,112792
6260,472,7,135394,112792
6263,471,7,135402,112795
6265,472,7,135402,112811
6267,477,7,135411,112815
6270,480,7,135441,112815
6273,480,7,135461,112817
6276,477,7,135470,112821
6278,473,7,135470,112823
6281,473,7,135480,112832
6283,473,7,135512,112832
6286,473,7,135526,112841
6288,480,7,135526,112848
6290,483,7,135539,112851
6293,482,7,135537,112851
6295,479,7,135559,112859
6298,474,7,135561,112861
6300,474,7,135597,112861
6303,473,7,135597,112869
6305,476,7,135616,112878
6307,479,7,135606,112878
6310,482,7,135606,112875
6312,481,7,135639,112880
6316,478,7,135650,112880
6318,476,7,135670,112881
6321,474,7,135670,112893
6323,474,7,135681,112893
6326,475,7,135685,112896
6328,482,7,135685,112897
6330,485,7,135695,112896
6333,485,7,135678,112896
6335,482,7,135680,112895
6338,477,7,135680,112895
6340,476,7,135692,112902
6343,476,7,135724,112902
6345,477,7,135728,112906
6347,479,7,135736,112910
6350,486,7,135736,112910
6352,484,7,135739,112919
6355,482,7,135753,112919
6358,479,7,135764,112911
6361,477,7,135764,112916
6363,476,7,135774,112929
6366,476,7,135783,112929
6368,480,7,135801,112932
6370,487,7,135801,112932
6373,484,7,135804,112935
6375,479,7,135812,112939
6378,477,7,135817,112945
6380,475,7,135830,112944
6383,475,7,135842,112944
6385,475,7,135840,112943
6387,479,7,135844,112941
6390,485,7,135854,112951
6392,484,7,135872,112952
6395,480,7,135865,112952
6397,476,7,135865,112948
6401,473,7,135866,112955
6403,470,7,135866,112960
6406,470,7,135873,112960
6408,474,7,135877,112957
6410,479,7,135871,112949
6413,481,7,135889,112948
6415,475,7,135881,112947
6418,472,7,135880,112951
6420,470,7,135861,112947
6423,468,7,135867,112944
6425,467,7,135851,112941
6427,470,7,135843,112933
6430,474,7,135840,112939
6432,474,7,135835,112938
6435,470,7,135816,112932
6437,468,7,135818,112922
6440,466,7,135808,112930
6443,463,7,135815,112917
6446,466,7,135803,112920
6448,471,7,135782,112917
6450,475,7,135777,112914
6453,475,7,135770,112903
6455,472,7,135755,112900
6458,467,7,135749,112898
6460,465,7,135742,112895
6463,463,7,135730,112891
6465,464,7,135726,112890
6467,468,7,135711,112889
6470,474,7,135710,112876
6472,473,7,135705,112880
6475,470,7,135684,112881
6477,468,7,135680,112874
6480,466,7,135672,112866
6482,465,7,135670,112868
6486,464,7,135665,112871
6488,470,7,135658,112865
6490,472,7,135658,112864
6493,473,7,135644,112859
6495,470,7,135650,112865
6498,466,7,135649,112869
6500,465,7,135642,112856
6503,465,7,135638,112864
6505,468,7,135644,112858
6507,470,7,135642,112860
6510,473,7,135643,112853
6512,473,7,135657,112864
6515,470,7,135662,112865
6517,465,7,135667,112864
6520,465,7,135667,112871
6522,465,7,135666,112864
6525,465,7,135678,112869
6528,472,7,135676,112870
6530,473,7,135680,112871
6533,473,7,135697,112869
6535,471,7,135713,112876
6538,468,7,135707,112883
6540,465,7,135711,112887
6543,462,7,135726,112886
6545,462,7,135739,112883
6547,465,7,135748,112896
6550,469,7,135754,112898
6552,469,7,135777,112906
6555,467,7,135770,112913
6557,462,7,135785,112916
6560,462,7,135800,112913
6562,462,7,135815,112922
6565,462,7,135825,112927
6567,468,7,135840,112920
6569,468,7,135849,112934
6573,468,7,135857,112931
6575,468,7,135871,112923
6578,466,7,135881,112922
6580,463,7,135910,112956
6583,461,7,135904,112952
6585,462,7,135922,112961
6587,468,7,135937,112963
6590,472,7,135952,112970
6592,473,7,135965,112974
6595,468,7,135973,112976
6597,464,7,135994,112978
6600,463,7,136013,112988
6602,465,7,136015,112971
6605,467,7,136025,113001
6607,472,7,136051,113001
6609,477,7,136053,113008
6612,476,7,136073,113013
6615,473,7,136085,112995
6618,469,7,136098,113005
6620,468,7,136114,113020
6623,469,7,136119,113003
6625,470,7,136126,113024
6627,476,7,136146,113029
6630,482,7,136148,113029
6632,482,7,136159,113029
6635,479,7,136167,113040
6637,479,7,136179,113043
6640,478,7,136193,113046
6642,476,7,136195,113041
6645,476,7,136209,113044
6647,481,7,136224,113050
6649,483,7,136224,113057
6652,484,7,136225,113054
6654,479,7,136235,113063
6658,475,7,136235,113056
6660,474,7,136255,113062
6663,474,7,136262,113062
6665,475,7,136277,113083
6667,477,7,136281,113066
6670,482,7,136277,113082
6672,481,7,136277,113072
6675,478,7,136296,113081
6677,474,7,136297,113095
6680,471,7,136297,113084
6682,470,7,136310,113082
6685,470,7,136312,113082
6687,476,7,136328,113092
6689,477,7,136328,113086
6692,478,7,136334,113092
6694,476,7,136338,113092
6697,474,7,136346,113089
6700,471,7,136346,113093
6703,468,7,136351,113098
6705,469,7,136355,113093
6707,474,7,136355,113102
6710,477,7,136367,113104
6712,479,7,136370,113104
6715,477,7,136369,113109
6717,472,7,136369,113103
6720,472,7,136381,113108
6722,473,7,136389,113108
6725,473,7,136405,113110
6727,480,7,136398,113105
6729,482,7,136398,113112
6732,482,7,136395,113108
6734,481,7,136404,113108
6737,478,7,136412,113109
6739,475,7,136412,113108
6743,473,7,136418,113119
6745,473,7,136418,113119
6747,476,7,136421,113121
6750,480,7,136421,113119
6752,481,7,136421,113118
6755,480,7,136428,113128
6757,476,7,136428,113125
6760,476,7,136443,113130
6762,477,7,136437,113130
6765,478,7,136446,113129
6767,485,7,136446,113131
6769,488,7,136453,113128
6772,487,7,136440,113128
6774,484,7,136448,113130
6777,481,7,136445,113138
6779,478,7,136445,113129
6782,477,7,136462,113133
6785,478,7,136466,113133
6787,481,7,136480,113139
6790,486,7,136480,113129
6792,487,7,136472,113139
6795,486,7,136473,113144
6797,482,7,136473,113140
6800,484,7,136489,113149
6802,482,7,136489,113144
6805,486,7,136505,113141
6807,492,7,136449,113152
6809,492,7,136449,113146
6812,493,7,136495,113146
6814,492,7,136469,113147
6817,487,7,136469,113158
6819,486,7,136472,113153
6822,488,7,136504,113153
6824,492,7,136521,113150
6827,500,7,136514,113150
6830,526,7,136514,113149
6832,542,7,136525,113153
6835,552,7,136503,113153
6837,560,7,136513,113153
6840,569,7,136513,113155
6842,572,7,136519,113164
6845,566,7,136534,113164
6847,563,7,136539,113162
6849,544,7,136539,113165
6852,524,7,136542,113169
6854,502,7,136548,113167
6857,482,7,136546,113166
6859,468,7,136553,113169
6862,462,7,136560,113169
6864,461,7,136571,113172
6866,470,7,136571,113179
6870,474,7,136579,113179
6872,478,7,136579,113184
6875,478,7,136585,113176
6877,476,7,136591,113188
6880,477,7,136597,113192
6882,478,7,136600,113193
6885,481,7,136610,113193
6887,485,7,136626,113198
6889,492,7,136626,113200
6892,492,7,136629,113200
6894,486,7,136642,113202
6897,484,7,136672,113197
6899,482,7,136651,113202
6902,481,7,136666,113209
6904,482,7,136695,113216
6906,486,7,136698,113227
6909,491,7,136705,113220
6912,492,7,136711,113226
6915,489,7,136724,113226
6917,487,7,136724,113223
6920,485,7,136731,113223
6922,485,7,136737,113236
6925,488,7,136758,113242
6927,492,7,136757,113243
6929,497,7,136765,113248
6932,498,7,136779,113251
6934,494,7,136788,113254
6937,492,7,136793,113250
6939,491,7,136811,113250
6942,490,7,136809,113263
6944,492,7,136817,113267
6946,496,7,136844,113272
6949,500,7,136841,113279
6951,501,7,136856,113277
6955,498,7,136869,113282
6957,495,7,136882,113272
6960,492,7,136880,113280
6962,489,7,136891,113286
6965,491,7,136901,113294
6967,497,7,136914,113295
6969,502,7,136918,113296
6972,504,7,136932,113305
6974,501,7,136939,113311
6977,499,7,136948,113314
6979,498,7,136963,113309
6982,498,7,136973,113318
6984,499,7,136982,113317
6986,504,7,136979,113322
6989,509,7,136994,113325
6991,510,7,137004,113324
6994,505,7,137007,113328
6996,501,7,137010,113327
7000,501,7,137025,113337
7002,502,7,137022,113335
7005,502,7,137036,113337
7007,511,7,137034,113341
7009,513,7,137036,113341
7012,514,7,137056,113344
7014,511,7,137061,113341
7017,508,7,137074,113351
7019,508,7,137059,113347
7022,506,7,137069,113347
7024,507,7,137073,113354
7026,510,7,137077,113363
7029,514,7,137095,113360
7031,514,7,137101,113363
7034,512,7,137095,113359
7036,507,7,137099,113361
7040,507,7,137114,113366
7042,508,7,137106,113361
7045,509,7,137104,113361
7047,517,7,137090,113369
7049,519,7,137095,113360
7052,519,7,137078,113348
7054,519,7,137066,113334
7057,517,7,137037,113330
7059,514,7,137012,113328
7062,513,7,136974,113311
7064,513,7,136930,113294
7066,520,7,136886,113273
7069,524,7,136818,113250
7071,526,7,136740,113221
7074,520,7,136661,113200
7076,516,7,136587,113167
7079,515,7,136492,113121
7081,518,7,136388,113071
7085,520,7,136296,113055
7087,522,7,136188,113026
7089,526,7,136085,112992
7092,527,7,135984,112958
7094,523,7,135899,112923
7097,518,7,135806,112893
7099,514,7,135730,112871
7102,513,7,135659,112842
7104,517,7,135581,112819
7106,521,7,135538,112796
7109,521,7,135487,112782
7111,521,7,135435,112745
7114,513,7,135398,112736
7116,509,7,135364,112728
7119,506,7,135327,112716
7121,502,7,135306,112703
7124,500,7,135277,112696
7127,503,7,135258,112689
7129,506,7,135232,112679
7132,505,7,135209,112671
7134,500,7,135192,112658
7137,496,7,135192,112660
7139,494,7,135155,112650
7142,492,7,135134,112650
7144,491,7,135135,112644
7146,491,7,135114,112635
7149,494,7,135102,112624
7151,492,7,135094,112633
7154,487,7,135093,112631
7156,480,7,135093,112624
7159,476,7,135093,112613
7161,473,7,135079,112608
7164,473,7,135074,112608
7166,478,7,135085,112610
7169,479,7,135088,112608
7172,479,7,135088,112635
7174,477,7,135088,112611
7177,475,7,135099,112613
7179,473,7,135098,112613
7182,472,7,135106,112619
7184,473,7,135116,112617
7186,477,7,135116,112624
7189,483,7,135125,112622
7191,485,7,135131,112622
7194,480,7,135139,112628
7196,477,7,135139,112630
7199,478,7,135150,112637
7201,479,7,135177,112637
7204,480,7,135197,112635
7206,488,7,135206,112655
7208,491,7,135206,112653
7212,492,7,135219,112658
7214,490,7,135238,112658
7217,486,7,135257,112674
7219,484,7,135257,112676
7222,485,7,135275,112680
7224,487,7,135287,112680
7226,492,7,135307,112677
7229,499,7,135319,112680
7231,498,7,135319,112688
7234,495,7,135339,112697
7236,494,7,135347,112697
7239,493,7,135354,112703
7241,493,7,135354,112699
7244,494,7,135377,112707
7246,497,7,135378,112707
7248,501,7,135402,112719
7251,502,7,135387,112712
7254,500,7,135391,112712
7257,497,7,135405,112717
7259,495,7,135405,112724
7262,496,7,135411,112719
7264,499,7,135416,112719
7266,502,7,135421,112727
7269,508,7,135421,112732
7271,508,7,135433,112732
7274,505,7,135414,112732
7276,502,7,135437,112734
7279,500,7,135456,112739
7281,499,7,135456,112735
7284,501,7,135458,112733
7286,506,7,135469,112733
7288,509,7,135478,112738
7291,511,7,135478,112734
7293,507,7,135489,112748
7297,505,7,135462,112748
7299,504,7,135523,112751
7302,502,7,135523,112757
7304,503,7,135519,112757
7306,507,7,135498,112771
7309,516,7,135498,112764
7311,515,7,135506,112763
7314,513,7,135548,112763
7316,510,7,135556,112765
7319,508,7,135556,112774
7321,508,7,135545,112774
7324,511,7,135545,112767
7326,515,7,135568,112774
7328,517,7,135577,112774
7331,520,7,135581,112775
7333,519,7,135568,112776
7336,517,7,135568,112775
7339,516,7,135573,112775
7342,514,7,135575,112775
7344,514,7,135575,112772
7346,517,7,135564,112772
7349,524,7,135564,112767
7351,523,7,135570,112763
7354,520,7,135569,112763
7356,517,7,135552,112763
7359,515,7,135552,112762
7361,514,7,135566,112754
7364,515,7,135545,112754
7366,520,7,135533,112754
7368,528,7,135533,112750
7371,525,7,135530,112746
7373,521,7,135512,112741
7376,519,7,135507,112741
7378,518,7,135507,112737
7382,518,7,135502,112737
7384,519,7,135483,112737
7386,524,7,135479,112733
7389,530,7,135473,112733
7391,531,7,135472,112724
7394,528,7,135456,112722
7396,524,7,135456,112713
7399,521,7,135446,112716
7401,519,7,135445,112706
7404,520,7,135428,112706
7406,524,7,135431,112707
7408,530,7,135432,112710
7411,532,7,135430,112700
7413,527,7,135420,112698
7416,525,7,135415,112696
7418,523,7,135409,112689
7421,522,7,135392,112690
7424,521,7,135385,112694
7426,525,7,135379,112686
7429,530,7,135384,112688
7431,531,7,135382,112681
7434,528,7,135377,112686
7436,525,7,135385,112680
7439,524,7,135391,112679
7441,523,7,135392,112688
7444,523,7,135392,112682
7446,532,7,135400,112685
7448,535,7,135410,112693
7451,536,7,135397,112690
7453,534,7,135408,112693
7456,530,7,135416,112690
7458,529,7,135413,112691
7461,527,7,135417,112701
7463,528,7,135431,112698
7465,531,7,135439,112710
7469,539,7,135442,112703
7471,539,7,135448,112718
7474,536,7,135469,112714
7476,533,7,135477,112716
7479,531,8,135491,112715
7481,531,7,135497,112715
7484,535,7,135498,112726
7486,540,7,135512,112732
7488,543,7,135527,112729
7491,543,7,135528,112736
7493,537,7,135549,112738
7496,535,7,135564,112755
7498,535,7,135568,112749
7501,534,7,135586,112749
7503,536,7,135586,112754
7505,539,7,135601,112765
7508,541,7,135622,112773
7511,542,7,135633,112768
7514,539,7,135652,112774
7516,533,7,135656,112778
7519,533,7,135670,112786
7521,533,7,135687,112791
7524,532,7,135705,112792
7526,540,7,135706,112799
7528,540,7,135721,112806
7531,540,7,135738,112807
7533,538,7,135749,112807
7536,536,7,135754,112809
7538,532,7,135765,112815
7541,530,7,135776,112817
7543,530,7,135787,112818
7545,534,7,135798,112831
7548,537,7,135818,112835
7550,537,7,135824,112833
7554,535,7,135830,112844
7556,529,7,135850,112842
7559,530,7,135862,112848
7561,530,7,135873,112852
7564,531,7,135879,112848
7566,538,7,135882,112858
7568,539,7,135893,112862
7571,539,7,135911,112863
7573,538,7,135908,112844
7576,534,7,135915,112849
7578,531,7,135938,112874
7581,529,7,135932,112871
7583,529,7,135945,112880
7585,535,7,135958,112873
7588,539,7,135957,112881
7590,539,7,135967,112888
7593,534,7,135969,112887
7596,530,7,135987,112894
7599,529,7,135986,112891
7601,532,7,135994,112875
7604,533,7,135993,112899
7606,538,7,136004,112899
7608,543,7,136003,112900
7611,541,8,136024,112896
7613,539,7,136018,112898
7616,537,7,136022,112903
7618,533,8,136038,112913
7621,533,7,136030,112903
7623,538,8,136037,112915
7625,542,7,136037,112909
7628,547,8,136040,112904
7630,548,7,136046,112924
7633,544,7,136055,112912
7635,540,8,136055,112918
7639,539,8,136061,112921
7641,537,7,136070,112922
7644,538,7,136070,112915
7646,542,7,136076,112927
7648,545,7,136085,112927
7651,543,8,136092,112925
7653,537,8,136078,112926
7656,535,7,136103,112947
7658,535,7,136090,112934
7661,532,7,136100,112934
7663,531,7,136097,112930
7665,535,8,136110,112930
7668,539,7,136110,112955
7670,538,7,136110,112934
7673,533,7,136114,112931
7675,529,8,136114,112931
7678,526,8,136134,112941
7681,522,7,136128,112940
7684,523,7,136128,112939
7686,529,8,136140,112944
7688,532,7,136135,112944
7691,531,8,136139,112943
7693,527,7,136139,112947
7696,525,7,136148,112947
7698,525,7,136138,112947
7701,524,7,136162,112939
7703,526,8,136152,112940
7705,529,7,136152,112947
7708,533,7,136157,112948
7710,534,8,136155,112948
7713,530,8,136159,112947
7715,524,8,136159,112947
7718,524,8,136166,112945
7720,523,7,136163,112945
7724,523,8,136178,112953
7726,530,7,136176,112955
7728,531,7,136176,112956
7731,532,7,136187,112961
7733,530,7,136194,112961
7736,526,7,136192,112960
7738,522,7,136192,112960
7741,521,7,136202,112964
7743,521,7,136205,112964
7745,524,7,136208,112967
7748,529,7,136208,112965
7750,528,7,136214,112968
7753,525,7,136204,112966
7755,518,7,136204,112976
7758,518,7,136243,112971
7760,520,7,136237,112971
7763,520,7,136246,112980
7766,527,7,136246,112979
7768,531,7,136243,112989
7771,531,7,136255,112989
7773,527,8,136253,112985
7776,524,7,136249,112991
7778,521,7,136249,112990
7781,520,7,136282,112996
7783,521,7,136287,112996
7785,524,7,136288,112991
7788,531,7,136288,113000
7790,530,7,136298,113000
7793,526,7,136270,113000
7795,523,7,136282,112996
7798,521,7,136282,113003
7800,520,7,136324,113003
7803,520,7,136331,113014
7805,526,7,136331,113013
7808,529,7,136331,113017
7811,530,7,136352,113017
7813,528,7,136329,113026
7816,524,7,136329,113022
7818,524,7,136340,113024
7821,523,7,136362,113024
7823,526,7,136374,113025
7825,531,7,136381,113032
7828,548,7,136381,113035
7830,558,7,136389,113035
7833,567,7,136393,113035
7835,577,8,136406,113039
7838,602,7,136406,113036
7840,614,7,136408,113044
7843,620,7,136418,113044
7845,622,7,136418,113047
7847,616,7,136427,113047
7851,604,8,136450,113049
7853,589,8,136438,113056
7856,552,7,136438,113054
7858,528,7,136460,113060
7861,513,7,136461,113060
7863,503,8,136464,113066
7865,501,8,136473,113059
7868,504,7,136489,113068
7870,507,7,136496,113064
7873,506,7,136503,113071
7875,505,7,136503,113074
7878,505,7,136518,113077
7880,504,7,136518,113082
7883,508,8,136527,113082
7885,513,7,136536,113085
7887,519,7,136551,113084
7890,521,7,136577,113094
7892,515,7,136589,113099
7896,512,7,136599,113105
7898,511,7,136601,113111
7901,510,7,136606,113114
7903,509,7,136609,113121
7905,512,7,136620,113116
7908,517,7,136631,113121
7910,518,7,136639,113126
7913,514,7,136650,113130
7915,512,7,136661,113127
7918,512,7,136670,113144
7920,512,7,136673,113139
7923,512,7,136691,113145
7925,516,7,136703,113141
7927,519,7,136713,113151
7930,518,7,136724,113145
7932,518,7,136739,113147
7936,516,7,136733,113158
7938,516,7,136747,113156
7941,514,7,136754,113153
7943,515,7,136768,113159
7945,518,7,136782,113163
7948,521,7,136786,113173
7950,522,7,136793,113175
7953,518,7,136807,113183
7955,512,8,136806,113180
7958,510,7,136814,113187
7960,509,7,136821,113192
7963,509,7,136834,113188
7965,518,7,136845,113196
7967,520,7,136854,113200
7970,521,7,136855,113196
7972,520,7,136856,113198
7975,516,7,136862,113208
7977,513,7,136871,113211
7981,512,7,136877,113201
7983,514,7,136879,113213
7985,517,7,136883,113226
7988,521,7,136908,113211
7990,523,7,136909,113219
7993,520,7,136928,113218
7995,515,7,136920,113222
7998,515,7,136921,113222
8000,516,7,136919,113228
8003,516,7,136939,113230
8005,524,7,136941,113231
8007,525,7,136946,113237
8010,525,7,136956,113244
8012,524,7,136977,113242
8015,521,7,136961,113242
8017,518,7,136965,113250
8020,516,7,136974,113250
8023,517,7,136979,113250
8025,520,7,136986,113254
8028,523,7,136995,113261
8030,524,7,137002,113260
8033,522,7,136985,113256
8035,517,7,136992,113259
8038,518,7,137002,113250
8040,518,7,136995,113258
8043,519,7,136997,113252
8045,526,7,136989,113248
8047,527,7,136977,113255
8050,527,7,136966,113251
8052,527,7,136955,113221
8055,525,7,136924,113221
8057,522,7,136905,113213
8060,520,7,136869,113205
8062,519,7,136833,113187
8065,524,7,136762,113163
8068,528,7,136697,113135
8070,529,7,136626,113111
8073,526,7,136552,113079
8075,521,7,136457,113046
8078,521,7,136457,113014
8080,524,7,136267,112972
8083,527,7,136156,112945
8085,533,7,136055,112910
8087,535,7,135964,112872
8090,535,7,135850,112834
8092,534,7,135759,112788
8095,533,7,135664,112788
8097,530,7,135585,112746
8100,528,7,135503,112710
8102,529,7,135438,112693
8104,535,7,135377,112669
8108,536,7,135330,112652
8110,535,7,135284,112636
8113,531,7,135239,112618
8115,522,7,135197,112604
8118,521,7,135197,112593
8120,519,7,135133,112574
8123,518,7,135098,112574
8125,520,7,135080,112556
8127,520,7,135059,112538
8130,516,7,135037,112555
8132,512,7,135022,112522
8135,508,7,135000,112522
8137,504,7,134981,112518
8140,502,7,134971,112507
8142,500,7,134951,112506
8144,502,7,134951,112499
8147,505,7,134933,112495
8150,505,7,134924,112495
8153,496,7,134918,112497
8155,493,7,134915,112469
8158,492,7,134915,112483
8160,492,7,134908,112477
8163,492,7,134908,112477
8165,498,7,134908,112495
8167,499,7,134908,112478
8170,499,7,134908,112477
8172,496,7,134912,112477
8175,493,7,134921,112479
8177,490,7,134931,112481
8180,490,7,134931,112486
8182,492,7,134932,112489
8184,496,7,134944,112489
8187,500,7,134962,112497
8189,500,7,134962,112500
8193,498,7,134981,112504
8195,496,7,134997,112504
8198,494,7,135013,112501
8200,491,7,135019,112511
8203,491,7,135030,112521
8205,496,7,135034,112519
8207,499,7,135047,112519
8210,502,7,135064,112533
8212,498,7,135064,112548
8215,496,7,135093,112537
8217,496,7,135115,112537
8220,495,7,135120,112548
8222,496,7,135120,112545
8224,501,7,135137,112556
8227,504,7,135152,112556
8229,504,7,135163,112555
8232,502,7,135172,112562
8235,497,7,135172,112571
8238,497,7,135180,112570
8240,497,7,135203,112570
8243,497,7,135213,112573
8245,504,7,135213,112578
8247,507,7,135219,112584
8250,507,7,135229,112584
8252,504,7,135218,112583
8255,500,7,135221,112585
8257,497,7,135221,112583
8260,496,7,135246,112578
8262,497,7,135255,112578
8264,500,7,135266,112589
8267,507,7,135257,112586
8269,507,7,135238,112586
8272,502,7,135238,112584
8274,499,7,135230,112586
8278,499,7,135274,112595
8280,496,7,135274,112595
8283,501,7,135286,112600
8285,506,7,135295,112600
8287,510,7,135295,112608
8290,509,7,135305,112608
8292,505,7,135306,112602
8295,503,7,135306,112610
8297,504,7,135287,112622
8300,503,7,135332,112622
8302,503,7,135345,112612
8304,504,7,135350,112619
8307,510,7,135350,112621
8309,508,7,135354,112622
8312,504,7,135371,112622
8314,501,7,135375,112626
8317,498,7,135375,112618
8320,497,7,135385,112618
8323,500,7,135385,112637
8325,504,7,135394,112629
8327,506,7,135381,112629
8330,508,7,135400,112627
8332,507,7,135400,112633
8335,505,7,135400,112630
8337,503,7,135402,112634
8340,503,7,135386,112634
8342,502,7,135401,112633
8344,505,7,135401,112628
8347,509,7,135397,112625
8349,511,7,135396,112625
8352,511,7,135382,112631
8354,510,7,135382,112632
8357,509,7,135382,112623
8359,507,7,135392,112620
8363,510,7,135367,112620
8365,514,7,135373,112618
8367,519,7,135359,112615
8370,522,7,135359,112615
8372,515,7,135360,112613
8375,511,7,135346,112607
8377,508,7,135346,112595
8380,507,7,135331,112599
8382,505,7,135323,112593
8384,512,7,135318,112593
8387,515,7,135310,112594
8389,516,7,135309,112589
8392,512,7,135310,112586
8394,505,7,135300,112585
8397,503,7,135295,112584
8399,502,7,135276,112574
8402,501,7,135278,112571
8404,504,7,135266,112574
8407,508,7,135260,112570
8410,509,7,135250,112566
8412,504,7,135256,112566
8415,501,7,135242,112567
8417,500,7,135242,112563
8420,499,7,135249,112565
8422,502,7,135229,112559
8424,505,7,135247,112560
8427,508,7,135226,112560
8429,508,7,135245,112565
8432,505,7,135237,112562
8434,501,7,135244,112561
8437,498,7,135236,112566
8439,495,7,135236,112557
8442,496,7,135236,112558
8444,501,7,135246,112556
8446,505,7,135245,112568
8450,507,7,135245,112561
8452,505,7,135245,112565
8455,499,7,135250,112566
8457,498,7,135273,112570
8460,498,7,135269,112577
8462,501,7,135272,112575
8464,505,7,135282,112582
8467,513,7,135287,112581
8469,511,7,135294,112582
8472,508,7,135311,112595
8474,505,7,135316,112590
8477,503,7,135335,112593
8479,502,7,135339,112594
8482,504,7,135342,112598
8484,508,7,135355,112597
8486,513,7,135366,112611
8489,512,7,135374,112610
8492,507,7,135380,112616
8495,505,7,135406,112624
8497,505,7,135422,112628
8500,505,7,135423,112627
8502,505,7,135439,112635
8504,508,7,135450,112638
8507,511,7,135468,112641
8509,510,7,135481,112647
8512,506,7,135488,112649
8514,499,7,135500,112652
8517,500,7,135518,112662
8519,500,7,135530,112664
8522,501,7,135551,112675
8524,508,7,135553,112666
8526,508,7,135571,112676
8529,508,7,135580,112676
8531,507,7,135597,112674
8535,504,7,135609,112674
8537,500,7,135620,112703
8540,498,7,135634,112694
8542,496,7,135646,112699
8544,499,7,135653,112705
8547,504,7,135672,112714
8549,504,7,135685,112715
8552,501,7,135684,112720
8554,495,7,135706,112728
8557,495,7,135706,112724
8559,497,7,135727,112737
8562,499,7,135729,112734
8564,505,7,135749,112743
8566,506,7,135760,112736
8569,506,7,135762,112740
8571,506,7,135772,112725
8574,504,7,135774,112725
8577,500,7,135787,112755
8580,499,7,135795,112747
8582,500,7,135805,112753
8584,505,7,135805,112757
8587,506,7,135815,112760
8589,507,7,135817,112750
8592,504,7,135823,112754
8594,498,7,135831,112761
8597,497,7,135831,112764
8599,498,7,135833,112768
8602,500,7,135838,112766
8604,506,7,135839,112764
8606,508,7,135846,112764
8609,509,7,135843,112773
8611,508,7,135855,112764
8614,505,7,135864,112771
8616,504,7,135856,112772
8620,503,7,135867,112777
8622,503,7,135873,112779
8624,506,7,135873,112775
8627,512,7,135872,112788
8629,513,7,135876,112788
8632,508,7,135884,112790
8634,505,7,135889,112784
8637,505,7,135889,112779
8639,505,7,135890,112782
8642,506,7,135893,112782
8644,512,7,135902,112802
8646,514,7,135902,112791
8649,514,7,135899,112790
8651,512,7,135908,112790
8654,509,7,135920,112794
8656,505,7,135915,112793
8659,505,7,135915,112796
8662,508,7,135914,112794
8664,512,7,135929,112794
8667,517,7,135930,112807
8669,515,7,135930,112801
8672,512,7,135935,112800
8674,509,7,135938,112800
8677,508,7,135946,112805
8679,504,7,135937,112799
8682,504,7,135939,112803
8684,508,7,135951,112799
8686,511,7,135942,112799
8689,511,7,135954,112812
8691,506,7,135954,112805
8694,503,7,135955,112805
8696,502,7,135958,112805
8699,500,7,135969,112807
8701,499,7,135970,112812
8704,502,7,135970,112819
8707,504,7,135976,112823
8709,504,7,135985,112823
8712,500,7,135992,112818
8714,493,7,135992,112823
8717,493,7,135998,112818
8719,493,7,135997,112818
8722,493,7,136004,112819
8724,499,7,136014,112825
8726,501,7,136014,112826
8729,501,7,136025,112826
8731,499,7,136026,112836
8734,493,7,136027,112836
8736,493,7,136039,112836
8739,491,7,136047,112835
8741,492,7,136047,112838
8743,498,7,136056,112842
8747,502,7,136068,112849
8749,499,7,136068,112842
8752,497,7,136053,112842
8754,496,7,136069,112854
8757,494,7,136096,112858
8759,492,7,136096,112845
8762,493,7,136100,112860
8764,496,7,136105,112860
8766,498,7,136109,112860
8769,498,7,136109,112863
8771,494,7,136116,112864
8774,492,7,136096,112864
8776,490,7,136101,112873
8779,488,7,136101,112872
8781,489,7,136142,112872
8783,493,7,136155,112879
8786,499,7,136155,112877
8788,497,7,136150,112879
8792,494,7,136137,112879
8794,490,7,136150,112883
8797,489,7,136150,112890
8799,490,7,136187,112886
8802,492,7,136195,112886
8804,496,7,136204,112894
8806,499,7,136219,112896
8809,500,7,136219,112901
8811,496,7,136215,112911
8814,493,7,136225,112911
8816,492,7,136237,112909
8819,492,7,136237,112914
8821,492,7,136243,112913
8823,499,7,136257,112913
8826,503,7,136261,112920
8828,505,7,136261,112922
8832,499,7,136268,112920
8834,496,7,136268,112931
8837,495,7,136283,112931
8839,495,7,136283,112931
8842,499,7,136298,112931
8844,503,7,136310,112939
8846,506,7,136310,112946
8849,507,7,136319,112942
8851,503,7,136326,112942
8854,504,7,136339,112946
8856,508,7,136348,112961
8859,520,7,136348,112959
8861,534,7,136361,112959
8863,555,7,136357,112957
8866,575,7,136359,112962
8868,588,7,136376,112963
8871,598,7,136381,112961
8873,598,7,136388,112962
8877,590,7,136403,112967
8879,580,7,136408,112978
8882,566,7,136408,112982
8884,541,7,136425,112982
8886,528,7,136418,112976
8889,510,7,136429,112986
8891,494,7,136449,112985
8894,478,7,136462,112995
8896,467,7,136474,112995
8899,467,7,136471,112994
8901,469,7,136475,113006
8903,475,7,136486,112999
8906,483,7,136499,113009
8908,490,7,136508,113009
8911,487,7,136518,113016
8913,485,7,136528,113012
8916,483,7,136541,113020
8919,482,7,136544,113021
8922,484,7,136552,113029
8924,488,7,136559,113024
8926,490,7,136568,113034
8929,491,7,136581,113043
8931,488,7,136589,113049
8934,484,7,136598,113049
8936,481,7,136608,113056
8939,480,7,136620,113055
8941,482,7,136637,113056
8943,486,7,136643,113066
8946,494,7,136666,113073
8948,493,7,136668,113073
8951,491,7,136677,113070
8953,489,7,136686,113075
8956,487,7,136692,113081
8958,486,7,136702,113078
8962,485,7,136711,113083
8964,492,7,136718,113096
8966,494,7,136729,113100
8969,495,7,136742,113093
8971,492,7,136753,113098
8974,489,7,136772,113109
8976,489,7,136767,113114
8979,489,7,136774,113120
8981,491,7,136784,113120
8983,494,7,136790,113123
8986,497,7,136814,113128
8988,498,7,136824,113130
8991,496,7,136837,113124
8993,491,7,136833,113135
8996,491,7,136841,113140
8998,491,7,136846,113140
9001,492,7,136867,113140
9004,500,7,136865,113146
9006,501,7,136864,113151
9009,501,7,136880,113153
9011,500,7,136894,113150
9014,497,7,136895,113155
9016,494,7,136904,113149
9019,492,7,136909,113153
9021,493,7,136913,113161
9023,496,7,136921,113175
9026,498,7,136930,113176
9028,499,7,136942,113174
9031,496,7,136938,113173
9033,491,7,136949,113183
9036,492,7,136952,113181
9038,493,7,136960,113185
9041,495,7,136964,113184
9043,501,7,136973,113192
9046,502,7,136982,113199
9049,502,7,136979,113196
9051,502,7,136988,113175
9054,500,7,136996,113179
9056,497,7,137005,113205
9059,497,7,136997,113208
9061,499,7,137006,113209
9063,505,7,137020,113208
9066,509,7,137020,113207
9068,510,7,137018,113214
9071,505,7,137021,113215
9073,501,7,137038,113215
9076,500,7,137024,113219
9078,503,7,137024,113194
9081,504,7,137020,113205
9083,510,7,137010,113204
9085,515,7,136994,113199
9089,514,7,136985,113187
9091,511,7,136964,113182
9094,507,7,136937,113165
9096,506,7,136902,113152
9099,506,7,136902,113137
9101,510,7,136793,113121
9103,513,7,136729,113121
9106,519,7,136661,113079
9108,519,7,136575,113024
9111,516,7,136484,113003
9113,513,7,136389,112963
9116,511,7,136291,112949
9118,511,7,136194,112894
9121,513,7,136076,112855
9123,520,7,135970,112817
9125,522,7,135970,112785
9128,522,7,135762,112751
9131,516,7,135666,112716
9134,512,7,135666,112682
9136,509,7,135488,112656
9139,508,7,135422,112656
9141,507,7,135349,112626
9143,508,7,135349,112588
9146,510,7,135246,112569
9148,508,7,135193,112569
9151,504,7,135162,112542
9153,493,7,135134,112526
9156,491,7,135134,112513
9158,489,7,135068,112505
9161,488,7,135043,112505
9163,490,7,135018,112484
9165,490,7,135018,112469
9168,488,7,134968,112462
9170,485,7,134959,112462
9174,481,7,134952,112459
9176,475,7,134952,112442
9179,472,7,134910,112438
9181,472,7,134903,112434
9183,476,7,134898,112431
9186,478,7,134898,112422
9188,478,7,134880,112422
9191,476,7,134879,112431
9193,471,7,134879,112422
9196,471,7,134888,112420
9198,472,7,134877,112420
9201,472,7,134895,112422
9203,480,7,134894,112424
9205,481,7,134894,112430
9208,482,7,134900,112426
9210,481,7,134912,112426
9213,476,7,134917,112426
9216,476,7,134920,112426
9219,475,7,134935,112435
9221,477,7,134935,112444
9223,483,7,134947,112452
9226,488,7,134965,112456
9228,485,7,134965,112448
9231,484,7,134995,112448
9233,483,7,135014,112461
9236,482,7,135030,112462
9238,481,7,135030,112471
9241,482,7,135051,112482
9243,485,7,135070,112482
9245,488,7,135097,112483
9248,488,7,135110,112498
9250,487,7,135102,112498
9253,482,7,135102,112514
9255,481,7,135123,112519
9259,481,7,135169,112519
9261,483,7,135169,112523
9263,489,7,135195,112526
9266,492,7,135214,112526
9268,493,7,135202,112534
9271,488,7,135206,112541
9273,486,7,135257,112541
9276,485,7,135257,112549
9278,485,7,135272,112551
9281,487,7,135253,112551
9283,492,7,135253,112558
9285,496,7,135278,112567
9288,497,7,135320,112567
9290,494,7,135325,112572
9293,490,7,135325,112584
9295,488,7,135331,112578
9298,488,7,135340,112578
9300,491,7,135360,112581
9303,501,7,135360,112576
9306,504,7,135369,112576
9308,504,7,135379,112588
9311,498,7,135379,112596
9313,494,7,135392,112602
9316,493,7,135412,112602
9318,491,7,135424,112604
9321,492,7,135424,112605
9323,499,7,135438,112610
9325,502,7,135445,112610
9328,503,7,135470,112619
9330,501,7,135484,112624
9333,496,7,135484,112625
9335,495,7,135508,112636
9338,494,7,135510,112636
9340,495,7,135522,112640
9342,498,7,135522,112648
9346,501,7,135530,112644
9348,503,7,135547,112644
9351,500,7,135554,112641
9353,499,7,135565,112652
9356,496,7,135565,112656
9358,495,7,135574,112656
9361,497,7,135567,112657
9363,501,7,135567,112659
9365,505,7,135574,112649
9368,507,7,135572,112651
9370,502,7,135562,112647
9373,498,7,135574,112656
9375,497,7,135574,112647
9378,496,7,135565,112647
9380,499,7,135549,112644
9382,504,7,135574,112648
9385,507,7,135543,112644
9388,507,7,135540,112641
9391,504,7,135544,112632
9393,497,7,135524,112636
9396,496,7,135512,112632
9398,496,7,135506,112623
9401,496,7,135482,112624
9403,500,7,135469,112617
9405,504,7,135454,112613
9408,505,7,135444,112602
9410,499,7,135431,112601
9413,497,7,135423,112597
9415,496,7,135410,112585
9418,495,7,135402,112584
9420,498,7,135390,112585
9422,502,7,135378,112581
9425,505,7,135361,112576
9427,506,7,135354,112565
9431,504,7,135337,112556
9433,500,7,135328,112558
9436,497,7,135320,112555
9438,495,7,135304,112552
9441,497,7,135295,112554
9443,503,7,135291,112548
9445,507,7,135280,112554
9448,507,7,135275,112540
9450,503,7,135273,112537
9453,501,7,135262,112547
9455,500,7,135263,112539
9458,499,7,135270,112535
9460,500,7,135272,112541
9462,505,7,135265,112543
9465,509,7,135262,112532
9467,510,7,135260,112533
9470,504,7,135254,112540
9473,500,7,135259,112542
9476,499,7,135275,112547
9478,499,7,135272,112543
9481,501,7,135266,112544
9483,507,7,135269,112543
9485,508,7,135277,112546
9488,508,7,135286,112547
9490,504,7,135298,112543
9493,500,7,135308,112555
9495,500,7,135300,112555
9498,499,7,135309,112553
9500,501,7,135319,112561
9502,503,7,135331,112575
9505,506,7,135335,112572
9507,506,7,135361,112571
9510,503,7,135361,112576
9512,498,7,135367,112583
9516,498,7,135395,112587
9518,498,7,135393,112585
9521,499,7,135407,112596
9523,506,7,135423,112593
9525,506,7,135430,112599
9528,505,7,135448,112616
9530,504,7,135462,112602
9533,501,7,135467,112601
9535,498,7,135492,112623
9538,497,7,135495,112625
9540,497,7,135509,112634
9542,503,7,135534,112636
9545,507,7,135547,112646
9547,507,7,135555,112650
9550,500,7,135570,112659
9552,496,7,135598,112663
9555,495,7,135602,112664
9558,497,7,135609,112642
9561,499,7,135627,112671
9563,501,7,135640,112672
9565,506,7,135653,112684
9568,506,7,135669,112682
9570,502,7,135678,112689
9573,498,7,135693,112694
9575,494,7,135718,112707
9578,494,7,135723,112698
9580,500,7,135732,112708
9582,505,7,135747,112711
9585,507,7,135757,112706
9587,507,7,135765,112709
9590,502,7,135781,112717
9592,500,7,135782,112718
9595,498,7,135800,112735
9597,497,7,135808,112731
9601,498,7,135821,112736
9603,505,7,135843,112741
9605,509,7,135843,112744
9608,510,7,135858,112744
9610,506,7,135867,112757
9613,503,7,135867,112758
9615,501,7,135881,112754
9618,501,7,135886,112754
9620,503,7,135899,112783
9622,506,7,135907,112772
9625,513,7,135913,112769
9627,512,7,135913,112781
9630,509,7,135925,112780
9632,505,7,135931,112779
9635,503,7,135931,112780
9637,503,7,135945,112786
9640,503,7,135956,112786
9643,510,7,135966,112799
9645,511,7,135967,112792
9648,512,7,135972,112803
9650,510,7,135972,112797
9653,507,7,135986,112789
9655,506,7,135992,112789
9658,504,7,136005,112804
9660,505,7,136004,112804
9662,508,7,136004,112804
9665,512,7,136017,112810
9667,513,7,136025,112810
9670,508,7,136023,112820
9672,505,7,136023,112823
9675,505,7,136036,112826
9677,505,7,136045,112826
9680,506,7,136050,112828
9682,513,7,136055,112821
9684,515,7,136055,112822
9688,515,7,136063,112832
9690,513,7,136072,112832
9693,509,7,136076,112832
9695,507,7,136076,112838
9698,507,7,136082,112838
9700,509,7,136085,112838
9702,513,7,136104,112827
9705,519,7,136095,112835
9707,517,7,136095,112851
9710,513,7,136106,112844
9712,512,7,136112,112844
9715,510,7,136117,112839
9717,508,7,136117,112845
9720,508,7,136121,112849
9722,510,7,136125,112849
9724,513,7,136135,112855
9728,512,7,136134,112855
9730,509,7,136136,112855
9733,505,7,136149,112859
9735,501,7,136149,112863
9738,501,7,136155,112863
9740,502,7,136166,112863
9742,505,7,136168,112866
9745,507,7,136168,112867
9747,505,7,136169,112870
9750,501,7,136159,112870
9752,498,7,136174,112873
9755,495,7,136198,112877
9757,494,7,136198,112884
9760,496,7,136208,112886
9762,499,7,136211,112886
9764,502,7,136217,112889
9767,503,7,136217,112885
9769,498,7,136224,112888
9773,496,7,136189,112888
9775,495,7,136204,112893
9778,493,7,136204,112888
9780,494,7,136246,112888
9782,498,7,136243,112898
9785,504,7,136243,112898
9787,504,7,136254,112900
9790,501,7,136231,112900
9792,497,7,136248,112904
9795,496,7,136248,112910
9797,496,7,136275,112907
9800,498,7,136283,112907
9802,502,7,136291,112910
9804,505,7,136295,112916
9807,506,7,136295,112913
9809,502,7,136295,112912
9812,500,7,136301,112912
9815,498,7,136315,112918
9818,498,7,136315,112916
9820,500,7,136320,112916
9822,503,7,136320,112926
9825,507,7,136340,112935
9827,510,7,136338,112935
9830,508,7,136363,112936
9832,507,7,136355,112944
9835,505,7,136355,112942
9837,503,7,136371,112948
9840,505,7,136377,112948
9842,509,7,136376,112948
9844,514,7,136384,112951
9847,516,7,136395,112950
9849,511,7,136405,112951
9852,508,7,136407,112960
9854,505,7,136407,112957
9858,503,7,136421,112962
9860,503,7,136434,112969
9862,507,7,136443,112967
9865,511,7,136439,112969
9867,510,7,136454,112986
9870,507,7,136465,112980
9872,504,7,136465,112994
9875,502,7,136479,112994
9877,501,7,136488,112987
9880,504,7,136512,112978
9882,507,7,136487,112992
9884,512,7,136506,112994
9887,513,7,136522,112998
9889,508,7,136547,113002
9892,506,7,136537,113011
9894,507,7,136556,113004
9897,510,7,136551,113014
9900,517,7,136554,113024
9902,532,7,136563,113023
9905,553,7,136569,113030
9907,584,7,136573,113031
9910,592,7,136590,113034
9912,598,7,136612,113028
9915,599,7,136620,113037
9917,587,7,136624,113042
9920,579,7,136638,113047
9922,570,7,136644,113052
9924,559,7,136653,113055
9927,542,7,136654,113056
9929,519,7,136661,113058
9932,495,7,136661,113060
9934,475,7,136681,113065
9937,472,7,136682,113065
9939,473,7,136707,113068
9942,478,7,136714,113075
9945,489,7,136730,113083
9947,491,7,136734,113074
9950,490,7,136738,113076
9952,489,7,136750,113079
9955,489,7,136757,113091
9957,488,7,136770,113098
9960,487,7,136772,113099
9962,494,7,136778,113101
9964,496,7,136786,113110
9967,498,7,136808,113107
9969,495,7,136816,113108
9972,492,7,136835,113112
9974,492,7,136837,113123
9977,492,7,136844,113118
9979,495,7,136852,113127
9981,498,7,136864,113141
9985,502,7,136881,113137
9987,503,7,136892,113138
9990,501,7,136901,113141
9992,496,7,136906,113149
9995,497,7,136927,113155
9997,498,7,136932,113153
10000,500,7,136947,113157
10002,508,7,136944,113161
10004,509,7,136956,113174
10007,510,7,136976,113167
10009,510,7,136979,113176
10012,507,7,136984,113172
10014,504,7,136997,113180
10017,501,7,137008,113183
10019,503,7,137019,113184
10021,506,7,137033,113199
10024,509,7,137038,113199
10027,510,7,137054,113207
10030,507,7,137049,113205
10032,502,7,137060,113211
10035,503,7,137075,113219
10037,503,7,137087,113217
10040,505,7,137102,113226
10042,511,7,137101,113227
10044,513,7,137105,113232
10047,513,7,137108,113233
10049,513,7,137118,113215
10052,510,7,137129,113215
10054,507,7,137146,113240
10057,507,7,137147,113246
10059,508,7,137149,113248
10061,514,7,137163,113247
10064,518,7,137163,113253
10066,519,7,137176,113259
10070,512,7,137179,113264
10072,508,7,137193,113262
10075,507,7,137194,113268
10077,509,7,137195,113253
10080,510,7,137209,113268
10082,516,7,137207,113276
10084,520,7,137222,113269
10087,519,7,137232,113284
10089,516,7,137229,113268
10092,513,7,137239,113274
10094,510,7,137244,113294
10097,510,7,137244,113284
10099,516,7,137254,113284
10101,520,7,137254,113292
10104,525,7,137261,113291
10106,525,7,137262,113307
10109,521,7,137282,113299
10112,518,7,137270,113295
10115,518,7,137274,113299
10117,516,7,137275,113302
10120,518,7,137275,113300
10122,524,7,137266,113294
10124,527,7,137268,113294
10127,527,7,137265,113294
10129,523,7,137247,113282
10132,522,7,137247,113293
10134,522,7,137199,113266
10137,522,7,137160,113266
10139,524,7,137132,113250
10141,528,7,137132,113210
10144,532,7,137028,113189
10146,532,7,136956,113189
10149,529,7,136888,113141
10151,523,7,136802,113100
10155,522,7,136802,113074
10157,523,7,136618,113035
10160,524,7,136518,113035
10162,531,7,136411,112968
10164,532,7,136411,112922
10167,532,7,136186,112891
10169,530,7,136088,112891
10172,526,7,135973,112857
10174,521,7,135973,112776
10177,518,7,135761,112749
10179,517,7,135668,112711
10181,519,7,135591,112685
10184,520,7,135514,112661
10186,519,7,135438,112661
10189,514,7,135381,112618
10191,505,7,135381,112598
10194,502,7,135331,112578
10196,500,7,135249,112578
10200,498,7,135217,112562
10202,501,7,135182,112540
10204,500,7,135182,112533
10207,498,7,135117,112514
10209,495,7,135105,112514
10212,490,7,135085,112518
10214,483,7,135085,112488
10217,481,7,135060,112491
10219,480,7,135040,112491
10221,483,7,135030,112482
10224,487,7,135030,112476
10226,486,7,135024,112479
10229,481,7,135001,112470
10231,477,7,135003,112470
10234,476,7,135003,112462
10236,476,7,135007,112462
10240,477,7,135012,112471
10242,484,7,135012,112471
10244,487,7,135009,112466
10247,486,7,135018,112466
10249,483,7,135015,112470
10252,480,7,135013,112479
10254,479,7,135013,112474
10257,478,7,135059,112481
10259,480,7,135074,112481
10261,483,7,135083,112493
10264,490,7,135083,112500
10266,489,7,135101,112503
10269,486,7,135089,112503
10271,483,7,135110,112506
10274,481,7,135110,112516
10276,480,7,135171,112516
10279,481,7,135190,112532
10281,489,7,135190,112533
10284,493,7,135209,112548
10287,493,7,135255,112548
10289,490,7,135237,112554
10292,486,7,135237,112573
10294,486,7,135261,112576
10297,486,7,135317,112576
10299,488,7,135343,112580
10301,491,7,135359,112587
10304,499,7,135359,112593
10306,498,7,135380,112607
10309,495,7,135407,112607
10311,492,7,135430,112618
10314,491,7,135430,112629
10316,490,7,135448,112632
10319,493,7,135473,112632
10321,498,7,135510,112637
10323,506,7,135510,112642
10327,503,7,135514,112652
10329,499,7,135523,112663
10332,496,7,135541,112663
10334,496,7,135558,112672
10337,496,7,135571,112672
10339,498,7,135600,112676
10341,503,7,135600,112673
10344,508,7,135624,112673
10346,508,7,135628,112680
10349,504,7,135627,112688
10351,500,7,135627,112695
10354,498,7,135646,112703
10356,495,7,135665,112713
10359,497,7,135681,112713
10361,501,7,135695,112713
10363,507,7,135699,112713
10366,508,7,135729,112723
10369,502,7,135762,112732
10372,499,7,135770,112739
10374,498,7,135761,112732
10377,497,7,135774,112740
10379,497,7,135786,112740
10381,500,7,135804,112753
10384,504,7,135826,112764
10386,504,7,135839,112760
10389,500,7,135844,112773
10391,498,7,135856,112766
10394,498,7,135861,112765
10396,498,7,135869,112776
10399,500,7,135868,112783
10401,504,7,135890,112781
10403,507,7,135885,112772
10406,506,7,135898,112781
10408,505,7,135893,112773
10412,503,7,135879,112779
10414,502,7,135902,112777
10417,501,7,135896,112778
10419,503,7,135901,112781
10421,506,7,135883,112774
10424,509,7,135876,112774
10426,509,7,135864,112774
10429,506,7,135871,112767
10431,502,7,135853,112761
10434,500,7,135836,112760
10436,500,7,135835,112755
10439,500,7,135829,112752
10441,508,7,135820,112749
10443,510,7,135810,112742
10446,510,7,135779,112736
10448,508,7,135769,112723
10451,504,7,135754,112723
10454,502,7,135743,112714
10457,499,7,135728,112712
10459,500,7,135704,112708
10461,504,7,135688,112704
10464,508,7,135675,112692
10466,509,7,135657,112692
10469,506,7,135648,112690
10471,501,7,135635,112681
10474,501,7,135612,112679
10476,502,7,135598,112675
10479,503,7,135583,112667
10481,510,7,135569,112668
10483,512,7,135558,112663
10486,512,7,135556,112650
10488,510,7,135557,112651
10491,506,7,135538,112643
10493,503,7,135527,112650
10497,501,7,135522,112645
10499,502,7,135517,112646
10501,505,7,135519,112652
10504,508,7,135518,112646
10506,509,7,135516,112641
10509,506,7,135514,112640
10511,501,7,135512,112643
10514,501,7,135519,112635
10516,501,7,135517,112641
10519,502,7,135516,112635
10521,509,7,135520,112633
10523,509,7,135519,112650
10526,509,7,135533,112650
10528,508,7,135531,112643
10531,504,7,135539,112641
10533,502,7,135555,112664
10536,500,7,135560,112657
10539,501,7,135569,112669
10541,507,7,135579,112671
10544,511,7,135589,112673
10546,512,7,135596,112671
10549,505,7,135611,112673
10551,501,7,135632,112687
10554,500,7,135640,112691
10556,502,7,135650,112668
10559,504,7,135664,112691
10561,506,7,135686,112706
10563,510,7,135698,112714
10566,510,7,135704,112717
10568,507,7,135722,112719
10571,503,7,135740,112729
10573,499,7,135765,112742
10576,499,7,135782,112739
10578,505,7,135795,112743
10580,510,7,135811,112760
10584,512,7,135833,112763
10586,512,7,135848,112755
10589,507,7,135871,112768
10591,505,7,135881,112775
10594,504,7,135896,112780
10596,503,7,135915,112794
10599,504,7,135934,112792
10601,510,7,135955,112798
10603,513,7,135955,112800
10606,515,7,135987,112812
10608,511,7,135996,112820
10611,508,7,135996,112826
10613,506,7,136036,112832
10616,506,7,136050,112832
10618,508,7,136078,112853
10620,511,7,136082,112841
10624,517,7,136098,112852
10626,517,7,136098,112869
10629,514,7,136120,112864
10631,510,7,136147,112888
10634,508,7,136147,112871
10636,507,7,136165,112874
10639,507,7,136185,112874
10641,514,7,136204,112891
10643,516,7,136224,112896
10646,517,7,136225,112921
10648,515,7,136225,112898
10651,511,7,136240,112903
10653,509,7,136253,112903
10656,508,7,136277,112913
10658,509,7,136280,112912
10660,513,7,136280,112926
10663,518,7,136303,112927
10665,519,7,136321,112927
10669,512,7,136320,112934
10671,509,7,136320,112929
10674,508,7,136336,112938
10676,508,7,136359,112938
10679,509,7,136371,112945
10681,516,7,136375,112947
10683,518,7,136375,112950
10686,518,7,136377,112950
10688,515,7,136391,112950
10691,511,7,136407,112975
10693,507,7,136407,112966
10696,507,7,136412,112967
10698,509,7,136417,112967
10700,512,7,136438,112976
10703,518,7,136445,112975
10705,516,7,136445,112988
10708,513,7,136451,112980
10711,512,7,136463,112980
10714,511,7,136461,112988
10716,510,7,136461,112990
10719,511,7,136475,112985
10721,514,7,136482,112985
10723,517,7,136499,112999
10726,517,7,136494,113000
10728,515,7,136491,113000
10731,511,7,136502,113002
10733,509,7,136502,113009
10736,511,7,136523,113000
10738,514,7,136525,113000
10740,518,7,136526,113010
10743,523,7,136526,113007
10745,521,7,136532,113013
10748,518,7,136515,113013
10750,514,7,136536,113014
10754,512,7,136555,113020
10756,510,7,136555,113016
10759,511,7,136565,113027
10761,514,7,136564,113027
10763,517,7,136569,113027
10766,516,7,136569,113024
10768,512,7,136577,113032
10771,509,7,136543,113032
10773,507,7,136559,113037
10776,504,7,136559,113039
10778,504,7,136598,113039
10780,506,7,136602,113040
10783,512,7,136602,113044
10785,510,7,136605,113043
10788,507,7,136581,113043
10790,503,7,136590,113050
10793,501,7,136590,113054
10796,501,7,136620,113046
10799,502,7,136622,113046
10801,506,7,136637,113044
10803,509,7,136642,113054
10806,510,7,136642,113059
10808,505,7,136637,113064
10811,503,7,136632,113064
10813,502,7,136646,113057
10816,501,7,136646,113063
10818,501,7,136659,113062
10820,508,7,136659,113062
10823,512,7,136672,113070
10825,514,7,136672,113070
10828,508,7,136662,113081
10830,505,7,136674,113072
10833,505,7,136680,113072
10835,505,7,136680,113078
10839,508,7,136691,113078
10841,512,7,136689,113077
10843,515,7,136689,113085
10846,516,7,136695,113083
10848,511,7,136704,113083
10851,509,7,136714,113088
10853,509,7,136717,113086
10856,507,7,136717,113091
10858,508,7,136728,113091
10860,513,7,136727,113090
10863,516,7,136726,113091
10865,516,7,136739,113093
10868,515,7,136743,113094
10870,510,7,136748,113100
10873,508,7,136760,113094
10875,507,7,136771,113107
10878,507,7,136771,113114
10881,514,7,136778,113114
10883,518,7,136775,113109
10886,518,7,136776,113121
10888,516,7,136787,113119
10891,511,7,136802,113120
10893,507,7,136807,113125
10896,505,7,136808,113117
10898,506,7,136815,113125
10900,510,7,136823,113129
10903,514,7,136835,113124
10905,516,7,136826,113140
10908,513,7,136834,113144
10910,510,7,136853,113140
10913,508,7,136861,113141
10915,507,7,136865,113138
10918,509,7,136869,113144
10920,514,7,136870,113138
10923,517,7,136876,113150
10926,518,7,136877,113155
10928,517,7,136887,113160
10931,518,7,136886,113165
10933,532,7,136900,113165
10936,542,7,136908,113169
10938,559,7,136927,113166
10940,578,7,136928,113176
10943,606,7,136947,113180
10945,607,7,136946,113173
10948,601,7,136952,113182
10950,593,7,136952,113182
10953,580,7,136968,113187
10955,563,7,136972,113191
10958,547,7,136978,113194
10960,525,7,136984,113206
10962,514,7,137001,113205
10966,503,7,137009,113203
10968,492,7,137021,113210
10971,484,7,137041,113214
10973,484,7,137028,113216
10976,484,7,137041,113222
10978,491,7,137042,113226
10980,496,7,137051,113226
10983,502,7,137073,113223
10985,504,7,137074,113219
10988,502,7,137078,113234
10990,497,7,137098,113235
10993,497,7,137101,113237
10995,497,7,137112,113243
10998,498,7,137123,113246
11000,505,7,137118,113245
11002,506,7,137131,113251
11005,506,7,137148,113257
11008,505,7,137158,113259
11011,502,7,137163,113255
11013,499,7,137170,113267
11016,497,7,137187,113267
11018,498,7,137187,113271
11020,501,7,137208,113295
11023,505,7,137220,113286
11025,506,7,137228,113291
11028,503,7,137235,113298
11030,498,7,137244,113305
11033,499,7,137253,113308
11035,500,7,137267,113311
11038,502,7,137278,113312
11040,508,7,137285,113315
11042,509,7,137301,113329
11045,509,7,137300,113325
11047,508,7,137313,113303
11051,506,7,137324,113303
11053,503,7,137339,113335
11056,502,7,137341,113339
11058,501,7,137352,113341
11060,505,7,137363,113344
11063,510,7,137371,113353
11065,511,7,137387,113365
11068,507,7,137390,113358
11070,502,7,137393,113368
11073,502,7,137393,113366
11075,504,7,137417,113374
11078,506,7,137430,113384
11080,513,7,137440,113387
11082,515,7,137446,113386
11085,515,7,137461,113391
11087,515,7,137469,113385
11090,512,7,137476,113394
11092,510,7,137481,113395
11096,510,7,137493,113399
11098,513,7,137511,113408
11100,519,7,137508,113404
11103,522,7,137519,113408
11105,522,7,137525,113408
11108,516,7,137534,113418
11110,513,7,137543,113423
11113,512,7,137543,113423
11115,513,7,137562,113433
11118,514,7,137565,113433
11120,521,7,137576,113450
11122,523,7,137591,113438
11125,524,7,137591,113438
11127,521,7,137591,113463
11130,519,7,137602,113449
11132,518,7,137609,113453
11136,516,7,137609,113455
11138,518,7,137626,113452
11140,521,7,137637,113452
11143,527,7,137651,113470
11145,527,7,137652,113469
11148,524,7,137655,113483
11150,522,7,137655,113474
11153,521,7,137655,113470
11155,521,7,137665,113468
11158,521,7,137665,113469
11160,526,7,137668,113471
11162,530,7,137660,113471
11165,531,7,137659,113482
11167,527,7,137647,113461
11170,526,7,137637,113452
11172,525,7,137637,113444
11175,526,7,137615,113442
11177,530,8,137563,113429
11180,532,7,137563,113408
11183,536,7,137477,113387
11185,537,7,137416,113387
11188,533,8,137357,113346
11190,528,7,137357,113317
11193,527,7,137282,113284
11195,528,7,137103,113284
11198,527,8,137018,113245
11200,534,7,136916,113170
11202,534,7,136916,113133
11205,534,7,136710,113099
11207,531,7,136598,113099
11210,524,7,136487,113014
11212,522,7,136378,113014
11215,519,7,136267,112939
11217,517,7,136267,112910
11219,520,7,136168,112872
11223,522,7,135962,112840
11225,517,7,135962,112809
