TimeStamp,ECG Data,GSR Data,PPG_Red Data,PPG_IR Data
192055,499,7,134858,116684
6,507,4,0,57537
8,469,4,57543,57537
11,415,4,73961,73922
13,361,4,90299,90329
16,317,4,106704,116940
18,274,4,123071,116926
21,205,4,135794,116926
23,191,4,135588,116922
25,185,4,135605,116916
28,184,4,135601,116923
30,189,4,135620,116929
33,194,4,135618,116929
35,226,4,135594,116930
38,237,4,135622,116932
40,243,4,135603,116931
43,244,4,135613,116931
46,241,4,135619,116936
48,236,4,135625,116943
51,229,4,135636,116941
53,220,4,135642,116944
56,215,4,135644,116940
58,215,4,135639,116946
61,213,4,135638,116952
63,213,4,135655,116951
65,216,4,135659,116956
68,226,5,135674,116958
70,234,5,135682,116960
73,242,5,135673,116958
75,249,4,135678,116962
78,256,4,135695,116972
80,278,5,135705,116968
82,286,5,135704,116972
86,295,5,135716,116972
88,302,5,135723,116974
91,308,5,135734,116981
93,316,5,135737,116986
96,325,5,135734,116986
98,335,5,135747,116988
101,343,5,135752,116993
103,353,5,135771,116991
105,359,5,135773,116999
108,365,5,135767,117001
110,373,5,135780,117005
113,381,5,135789,117008
115,386,5,135792,117001
118,387,5,135805,117007
120,395,5,135799,117015
122,401,5,135811,117020
125,404,5,135821,117022
128,411,5,135832,117025
131,420,5,135847,117026
133,423,5,135838,117027
136,428,5,135844,117033
138,434,5,135851,117029
141,439,5,135862,117034
143,442,5,135861,117028
145,443,5,135871,117043
148,451,6,135871,117047
150,452,5,135884,117052
153,456,5,135890,117051
155,458,5,135892,117052
158,459,5,135895,117054
160,458,6,135907,117057
162,463,5,135919,117058
165,469,6,135921,117059
167,473,6,135920,117059
171,475,6,135919,117070
173,482,6,135930,117071
176,486,6,135933,117070
178,489,6,135935,117070
181,491,6,135948,117063
183,499,6,135934,117079
185,503,6,135952,117082
188,500,6,135945,117078
190,497,6,135955,117059
193,504,6,135957,117067
195,504,6,135975,117089
198,505,6,135963,117064
200,514,6,135968,117088
202,515,6,135982,117091
205,514,6,135984,117073
207,513,6,135976,117094
210,513,6,135987,117096
212,512,6,135998,117101
216,519,6,135994,117097
218,529,6,136003,117108
221,535,7,136013,117101
223,539,6,136010,117106
225,540,6,136017,117109
228,539,6,136016,117110
230,534,6,136027,117117
233,539,6,136025,117114
235,547,7,136029,117111
238,548,7,136030,117116
240,553,7,136023,117112
242,561,7,136029,117109
245,565,7,136021,117113
247,565,7,136013,117105
250,563,7,136002,117102
252,555,7,135990,117095
256,560,7,135990,117086
258,566,7,135945,117071
261,563,7,135927,117060
263,562,7,135879,117040
265,566,7,135839,117040
268,567,7,135793,117012
270,569,7,135735,116991
273,577,7,135677,116965
275,579,7,135622,116939
278,581,7,135622,116935
280,582,7,135502,116913
282,580,7,135437,116913
285,577,7,135403,116863
287,569,7,135338,116834
290,574,7,135281,116823
292,577,7,135235,116804
295,578,7,135235,116804
297,579,7,135151,116783
301,578,7,135118,116783
303,572,7,135079,116750
305,568,7,135079,116733
308,566,7,135003,116720
310,566,7,134974,116720
313,565,7,134948,116709
315,560,7,134948,116675
318,555,7,134914,116662
320,552,7,134861,116655
322,548,7,134861,116643
325,547,7,134805,116632
327,549,7,134780,116632
330,548,7,134759,116619
332,546,7,134759,116608
335,550,7,134740,116597
337,553,7,134696,116597
340,553,7,134692,116599
343,548,8,134692,116582
345,548,7,134679,116583
348,548,7,134648,116580
350,544,7,134648,116570
353,543,7,134636,116560
355,543,8,134643,116560
358,542,7,134638,116559
360,544,7,134638,116561
362,547,7,134632,116558
365,551,7,134620,116563
367,547,7,134620,116557
370,549,7,134618,116557
372,551,8,134625,116557
375,549,8,134632,116561
377,549,7,134632,116562
380,554,7,134635,116566
382,557,7,134627,116566
385,557,7,134657,116562
388,553,7,134657,116570
390,549,7,134665,116574
393,548,7,134652,116574
395,546,7,134652,116578
398,545,7,134691,116586
400,544,8,134675,116594
402,541,7,134675,116593
405,545,8,134729,116593
407,551,7,134697,116594
410,555,7,134697,116602
412,553,8,134745,116602
415,550,7,134717,116604
417,551,7,134717,116608
420,549,7,134776,116608
422,549,8,134783,116616
424,547,7,134793,116609
428,550,8,134793,116620
430,551,7,134766,116629
433,555,8,134816,116629
435,561,7,134816,116628
438,561,8,134830,116628
440,560,8,134845,116639
442,560,8,134845,116633
445,559,8,134842,116639
447,560,8,134859,116639
450,565,7,134870,116644
452,568,8,134873,116646
455,564,7,134873,116652
457,564,7,134882,116649
460,566,8,134883,116649
462,570,7,134905,116658
464,574,8,134905,116663
467,569,7,134914,116669
470,566,8,134922,116675
473,567,7,134930,116673
475,568,7,134940,116676
478,569,8,134951,116676
480,570,8,134965,116687
482,573,7,134965,116699
485,566,8,134978,116696
487,564,8,134989,116696
490,565,8,135016,116704
492,568,7,135022,116709
495,565,8,135022,116713
497,564,8,135039,116708
500,565,8,135032,116708
502,568,8,135042,116715
504,571,8,135046,116725
507,571,8,135054,116722
509,566,8,135062,116718
513,563,7,135064,116724
515,559,8,135068,116721
518,556,8,135056,116716
520,552,8,135064,116720
522,551,8,135066,116724
525,550,8,135067,116726
527,550,8,135046,116717
530,550,8,135061,116716
532,550,7,135050,116714
535,550,7,135048,116711
537,549,8,135033,116709
540,550,8,135028,116704
542,550,7,135029,116704
544,550,7,135008,116700
547,549,8,135003,116694
549,548,8,135001,116696
552,544,8,134990,116691
555,548,8,134995,116687
558,551,7,134976,116680
560,552,7,134966,116676
562,550,7,134957,116675
565,549,8,134931,116668
567,549,7,134928,116671
570,548,7,134917,116662
572,544,7,134915,116659
575,546,7,134909,116667
577,556,7,134906,116656
580,556,7,134894,116656
582,556,7,134884,116651
584,556,7,134874,116649
587,560,7,134870,116642
589,559,7,134864,116638
592,557,7,134856,116642
594,557,7,134849,116634
598,555,7,134851,116642
600,552,7,134838,116635
602,555,7,134837,116624
605,555,7,134844,116626
607,558,8,134848,116632
610,556,7,134830,116624
612,558,7,134836,116633
615,563,7,134832,116629
617,564,7,134834,116630
620,561,7,134845,116632
622,564,7,134831,116632
624,560,7,134838,116632
627,559,7,134832,116626
629,560,7,134832,116628
632,558,7,134844,116631
634,553,7,134838,116634
637,554,7,134858,116641
640,556,7,134857,116643
642,555,7,134866,116646
645,553,7,134859,116644
647,554,8,134872,116645
650,560,8,134879,116646
652,562,7,134881,116651
655,560,7,134888,116645
657,559,7,134894,116656
660,559,7,134914,116654
662,560,7,134917,116662
664,558,7,134932,116667
667,555,7,134933,116667
669,548,7,134942,116673
672,553,7,134962,116682
674,557,7,134972,116680
677,556,7,134973,116671
679,555,7,134983,116688
681,558,8,135001,116696
685,560,7,135002,116699
687,558,7,135020,116708
690,554,7,135029,116714
692,544,7,135042,116717
695,548,8,135056,116716
697,553,7,135073,116727
700,556,8,135079,116730
702,558,8,135088,116733
704,556,7,135100,116737
707,552,7,135105,116739
709,544,7,135123,116746
712,548,7,135134,116744
714,554,8,135139,116749
717,554,8,135150,116736
719,555,7,135167,116755
721,557,8,135172,116753
724,558,8,135180,116755
727,556,8,135183,116764
730,553,7,135188,116771
732,546,7,135202,116776
735,551,8,135206,116779
737,555,7,135211,116782
740,557,8,135211,116786
742,561,7,135227,116785
744,560,7,135234,116792
747,556,7,135257,116786
749,552,7,135247,116795
752,549,8,135257,116807
754,545,8,135276,116789
757,545,8,135268,116789
759,551,8,135280,116802
761,550,8,135280,116795
764,550,7,135290,116817
766,548,8,135295,116817
770,545,8,135301,116805
772,538,8,135296,116807
775,542,8,135296,116806
777,545,8,135311,116815
780,540,8,135316,116815
782,538,8,135337,116817
784,541,8,135325,116817
787,543,8,135340,116819
789,544,7,135340,116840
792,544,7,135340,116836
794,541,8,135342,116834
797,538,7,135363,116845
799,536,7,135352,116832
801,534,8,135367,116839
804,532,7,135370,116847
806,534,8,135372,116847
809,532,8,135376,116844
812,533,8,135376,116841
815,538,7,135383,116842
817,539,7,135389,116844
820,537,8,135396,116844
822,530,7,135392,116843
824,532,8,135392,116847
827,536,7,135394,116852
829,536,7,135405,116852
832,534,8,135397,116847
834,538,8,135397,116843
837,537,8,135415,116850
839,535,8,135409,116850
841,530,8,135409,116851
844,531,7,135426,116857
846,534,8,135420,116857
849,537,8,135420,116856
851,536,8,135436,116856
855,535,8,135424,116861
857,535,8,135424,116856
860,535,8,135430,116856
862,532,8,135434,116856
864,530,7,135447,116860
867,534,8,135436,116858
869,533,8,135444,116858
872,530,8,135446,116858
874,538,8,135446,116861
877,537,7,135449,116868
879,534,8,135444,116864
881,528,8,135444,116862
884,531,7,135463,116862
886,536,8,135453,116870
889,538,8,135453,116879
891,535,8,135451,116879
894,532,8,135485,116883
897,531,8,135485,116880
900,528,8,135489,116872
902,527,8,135460,116872
904,525,8,135500,116884
907,523,8,135500,116880
909,522,8,135497,116882
912,521,8,135496,116882
914,521,8,135510,116881
917,522,8,135465,116881
919,541,7,135465,116889
921,558,8,135502,116889
924,571,8,135506,116889
926,582,8,135514,116884
929,604,7,135514,116888
931,613,8,135512,116891
934,613,8,135517,116891
936,608,8,135504,116891
940,601,8,135513,116897
942,577,8,135513,116886
944,561,8,135508,116886
947,546,8,135526,116894
949,532,8,135530,116896
952,515,8,135530,116896
954,506,8,135537,116897
957,506,8,135542,116897
959,513,8,135542,116901
961,520,8,135546,116901
964,529,7,135556,116902
966,535,8,135554,116910
969,537,8,135554,116904
971,532,8,135551,116905
974,529,8,135563,116916
976,531,7,135567,116912
979,534,8,135569,116912
982,536,7,135595,116915
984,537,7,135595,116920
987,535,7,135586,116925
989,532,7,135590,116925
992,534,8,135615,116927
994,535,7,135608,116935
997,533,7,135608,116939
999,534,8,135639,116937
1001,530,8,135626,116937
1004,531,8,135626,116938
1006,533,8,135638,116943
1009,534,8,135655,116952
1011,529,7,135661,116949
1014,525,7,135665,116952
1016,522,8,135679,116957
1019,520,7,135683,116952
1021,517,7,135697,116964
1024,515,7,135711,116965
1027,514,8,135711,116967
1029,513,7,135724,116970
1032,512,7,135731,116972
1034,512,7,135737,116985
1037,515,7,135752,116976
1039,515,7,135738,116982
1041,514,7,135770,116993
1044,515,7,135773,116988
1046,525,7,135785,116996
1049,528,7,135783,117003
1051,529,7,135803,117005
1054,526,7,135806,117005
1056,529,7,135821,117007
1059,527,7,135833,117019
1061,526,7,135838,117016
1063,524,7,135853,117020
1067,527,7,135862,117035
1069,527,7,135871,117032
1072,525,8,135877,117049
1074,523,7,135881,117040
1077,520,7,135899,117044
1079,525,7,135899,117049
1081,523,7,135909,117062
1084,525,7,135920,117053
1086,525,7,135933,117054
1089,522,7,135938,117061
1091,520,8,135947,117064
1094,520,7,135953,117071
1096,520,7,135968,117068
1099,518,7,135982,117080
1101,522,7,135983,117075
1103,523,7,135998,117084
1106,527,7,135997,117083
1108,525,7,136013,117088
1112,525,7,136016,117090
1114,526,7,136023,117095
1117,524,7,136028,117095
1119,525,7,136038,117098
1121,527,7,136043,117102
1124,530,7,136036,117100
1126,530,7,136055,117108
1129,529,7,136038,117103
1131,531,7,136043,117097
1134,531,7,136035,117101
1136,532,7,136013,117096
1139,532,7,136011,117074
1141,531,7,135973,117066
1143,529,7,135943,117054
1146,525,7,135898,117040
1148,521,7,135856,117017
1152,525,7,135794,116986
1154,527,7,135733,116964
1157,525,7,135662,116944
1159,522,7,135591,116921
1161,518,7,135506,116894
1164,522,7,135438,116862
1166,523,7,135365,116835
1169,521,7,135299,116815
1171,526,7,135236,116776
1174,534,7,135180,116757
1176,534,7,135128,116746
1179,528,7,135090,116732
1181,527,7,135031,116693
1183,530,7,134994,116695
1186,530,7,134950,116683
1188,524,7,134912,116668
1191,529,7,134870,116650
1193,535,7,134830,116633
1197,533,7,134803,116605
1199,533,7,134765,116606
1201,533,7,134732,116590
1204,532,7,134704,116585
1206,527,7,134677,116568
1209,522,7,134646,116559
1211,509,7,134625,116554
1214,512,7,134604,116537
1216,514,7,134576,116536
1219,515,7,134564,116509
1221,514,7,134539,116503
1223,512,7,134521,116508
1226,503,7,134503,116504
1228,497,7,134498,116496
1231,495,7,134480,116497
1233,497,7,134480,116494
1236,497,7,134472,116488
1239,491,7,134458,116483
1241,496,7,134458,116482
1244,501,7,134442,116476
1246,500,7,134438,116475
1249,496,7,134431,116487
1251,495,7,134438,116468
1254,497,7,134438,116474
1256,500,7,134435,116469
1259,497,7,134441,116473
1261,496,7,134454,116474
1263,500,7,134446,116474
1266,503,7,134457,116476
1268,499,7,134446,116467
1271,503,7,134447,116476
1273,505,7,134455,116470
1276,506,7,134455,116490
1278,508,7,134468,116494
1281,507,7,134477,116494
1284,502,7,134484,116486
1286,498,7,134484,116487
1289,497,7,134489,116501
1291,499,7,134491,116491
1294,500,7,134502,116492
1296,496,7,134506,116490
1299,499,7,134506,116498
1301,503,7,134521,116491
1303,503,7,134524,116491
1306,506,7,134524,116503
1308,504,7,134524,116509
1311,505,7,134529,116500
1313,504,7,134534,116505
1316,503,7,134540,116506
1318,497,7,134540,116502
1320,497,7,134539,116503
1324,501,7,134542,116506
1326,501,7,134538,116506
1329,497,7,134541,116495
1331,501,7,134541,116496
1334,506,7,134542,116501
1336,509,7,134540,116501
1339,510,7,134545,116497
1341,505,7,134545,116498
1343,505,7,134535,116494
1346,505,7,134526,116494
1348,503,7,134541,116496
1351,500,7,134524,116489
1353,504,7,134524,116490
1356,504,7,134531,116487
1358,501,7,134518,116491
1360,496,7,134518,116487
1363,499,7,134526,116487
1366,503,7,134522,116490
1369,505,7,134522,116496
1371,503,7,134533,116492
1374,501,7,134523,116492
1376,498,7,134523,116491
1379,497,7,134547,116493
1381,497,7,134527,116493
1383,496,7,134571,116502
1386,494,7,134571,116503
1388,493,7,134566,116504
1391,493,7,134572,116504
1393,491,7,134576,116507
1396,489,7,134559,116509
1648,510,7,134935,116625
1640,505,7,134919,116630
1643,509,7,134927,116632
1645,510,7,134938,116637
1648,510,7,134935,116625
1650,511,7,134941,116645
1653,511,7,134948,116634
1655,508,7,134956,116639
1658,503,7,134943,116627
1660,506,7,134960,116629
1662,504,7,134967,116648
1666,502,7,134979,116642
1668,499,7,134984,116654
1671,500,7,134982,116654
1673,499,7,134992,116658
1676,503,7,134996,116633
1678,505,7,134999,116659
1680,503,7,135002,116661
1683,500,7,135003,116661
1685,503,7,135012,116663
1688,501,7,135013,116662
1690,506,7,135017,116638
1693,513,7,135019,116643
1695,510,7,135027,116649
1698,506,7,135031,116668
1700,500,7,135034,116668
1702,497,7,135036,116649
1705,503,7,135035,116668
1708,500,7,135037,116665
1711,500,7,135040,116657
1713,504,7,135050,116667
1716,504,7,135047,116663
1718,503,7,135053,116668
1720,501,7,135049,116671
1723,499,7,135045,116672
1725,502,7,135059,116678
1728,503,7,135061,116675
1730,508,7,135053,116673
1733,508,7,135053,116680
1735,510,7,135062,116677
1738,512,7,135062,116678
1740,516,7,135062,116676
1742,515,7,135064,116676
1745,512,7,135071,116678
1747,514,7,135057,116670
1751,517,7,135058,116673
1753,519,7,135060,116667
1756,521,7,135060,116681
1758,523,7,135056,116683
1760,522,7,135058,116683
1763,519,7,135066,116678
1765,511,7,135054,116672
1768,512,7,135070,116681
1770,519,7,135065,116673
1773,520,7,135065,116669
1775,522,7,135061,116666
1778,516,7,135063,116677
1780,513,7,135070,116669
1782,516,7,135065,116669
1785,516,7,135077,116676
1787,518,7,135071,116669
1790,517,7,135074,116673
1793,517,7,135074,116678
1796,518,7,135069,116675
1798,523,7,135070,116686
1800,525,7,135070,116681
1803,530,7,135081,116682
1805,535,7,135077,116682
1808,554,7,135092,116683
1810,565,7,135092,116686
1813,580,7,135081,116690
1815,588,7,135084,116690
1818,590,7,135091,116681
1820,579,8,135100,116684
1822,572,7,135096,116684
1825,562,7,135098,116683
1827,541,7,135098,116689
1830,529,7,135097,116693
1832,518,7,135100,116693
1836,505,7,135110,116692
1838,491,7,135110,116690
1840,490,7,135110,116696
1843,493,7,135110,116686
1845,492,7,135115,116686
1848,489,7,135121,116691
1850,496,7,135121,116701
1853,505,7,135122,116697
1855,510,7,135129,116697
1858,510,7,135130,116700
1860,507,7,135130,116702
1862,507,7,135137,116705
1865,507,8,135127,116710
1867,503,7,135127,116702
1870,502,7,135135,116709
1872,501,7,135137,116709
1875,498,7,135137,116707
1878,496,7,135162,116707
1880,494,7,135164,116710
1883,501,7,135164,116713
1885,505,7,135173,116729
1888,509,8,135193,116726
1890,508,7,135193,116722
1893,510,7,135191,116722
1895,510,7,135191,116729
1898,514,7,135205,116723
1900,516,8,135216,116728
1902,512,7,135216,116741
1905,514,7,135232,116741
1907,518,7,135203,116741
1910,519,7,135203,116739
1912,513,7,135244,116743
1915,515,7,135241,116739
1917,516,7,135253,116739
1920,514,7,135272,116759
1923,514,7,135272,116753
1925,513,7,135261,116764
1928,516,7,135288,116764
1930,518,7,135274,116755
1933,519,7,135274,116755
1935,518,7,135278,116762
1938,511,7,135303,116762
1940,515,7,135305,116769
1942,521,7,135305,116775
1945,518,7,135315,116780
1947,517,7,135324,116771
1950,519,7,135321,116776
1952,522,7,135331,116779
1955,524,7,135333,116779
1957,526,7,135353,116788
1959,531,7,135353,116794
1963,525,7,135357,116795
1965,522,7,135364,116803
1968,524,7,135373,116803
1970,527,7,135372,116806
1973,528,7,135381,116806
1975,530,7,135389,116807
1978,534,7,135389,116808
1980,534,7,135425,116814
1982,531,7,135438,116817
1985,527,7,135438,116824
1987,526,7,135432,116825
1990,530,7,135437,116832
1992,529,7,135437,116831
1995,527,7,135436,116819
1997,529,7,135460,116827
1999,530,7,135471,116832
2002,529,7,135475,116837
2004,525,7,135477,116838
2008,522,7,135481,116845
2010,523,7,135476,116841
2013,524,7,135465,116833
2015,522,7,135461,116835
2018,522,7,135460,116825
2020,522,7,135430,116833
2022,522,7,135404,116809
2025,522,7,135385,116800
2027,523,7,135362,116783
2030,520,7,135320,116771
2032,524,7,135281,116752
2035,525,7,135228,116732
2037,532,7,135186,116715
2039,532,7,135127,116695
2042,533,7,135073,116677
2044,534,7,135018,116657
2048,533,7,134981,116637
2050,533,7,134932,116622
2053,532,7,134872,116606
2055,532,7,134826,116578
2058,530,7,134792,116562
2060,530,7,134747,116544
2062,528,7,134699,116520
2065,528,7,134642,116505
2067,531,7,134605,116483
2070,532,7,134563,116469
2072,529,7,134531,116460
2075,530,7,134485,116447
2077,533,7,134439,116420
2079,533,7,134415,116407
2082,530,7,134383,116396
2084,529,7,134354,116389
2087,527,7,134317,116374
2089,528,7,134296,116358
2093,523,7,134271,116355
2095,520,7,134241,116341
2098,520,7,134215,116335
2100,521,8,134188,116319
2102,520,7,134171,116313
2105,516,7,134147,116305
2107,514,7,134143,116300
2110,512,7,134120,116295
2112,511,7,134115,116287
2115,508,7,134094,116286
2117,506,7,134087,116282
2119,507,7,134080,116275
2122,508,7,134070,116272
2124,507,7,134070,116266
2127,504,7,134050,116270
2129,505,7,134053,116268
2132,505,7,134049,116257
2135,507,7,134043,116258
2138,506,7,134044,116258
2140,504,7,134041,116248
2142,507,7,134027,116242
2145,506,7,134035,116249
2147,502,7,134040,116246
2150,501,7,134048,116241
2152,499,7,134042,116241
2155,497,7,134036,116238
2157,493,7,134043,116262
2159,497,7,134047,116257
2162,502,7,134057,116257
2164,504,7,134060,116262
2167,502,7,134055,116257
2169,498,7,134069,116262
2172,503,7,134069,116259
2174,511,7,134067,116264
2178,515,7,134067,116235
2180,518,7,134070,116236
2182,516,7,134076,116271
2185,513,7,134080,116259
2187,506,7,134086,116269
2190,510,7,134083,116262
2192,517,7,134081,116260
2195,517,7,134074,116259
2197,520,7,134076,116255
2199,527,7,134084,116256
2202,530,7,134080,116261
2204,528,7,134071,116258
2207,524,7,134071,116252
2209,514,7,134080,116253
2212,517,7,134067,116244
2214,520,8,134063,116244
2217,522,7,134063,116244
2220,526,7,134049,116239
2222,525,7,134048,116244
2225,521,7,134045,116236
2227,517,7,134047,116235
2230,515,7,134044,116245
2232,517,7,134036,116230
2235,520,7,134028,116230
2237,520,7,134039,116229
2239,522,7,134039,116232
2242,524,7,134025,116236
2244,523,7,134021,116236
2247,520,7,134033,116225
2249,514,7,134029,116225
2252,519,7,134029,116225
2254,523,7,134026,116222
2257,519,7,134032,116228
2259,518,7,134045,116222
2262,523,7,134039,116222
2265,525,7,134043,116231
2267,521,7,134052,116221
2270,526,7,134052,116235
2272,527,7,134052,116228
2275,528,7,134056,116242
2277,529,7,134072,116240
2279,528,7,134067,116240
2282,522,7,134083,116240
2284,519,7,134083,116238
2287,518,7,134077,116245
2289,520,7,134082,116245
2292,520,7,134085,116237
2294,516,7,134085,116245
2297,515,7,134075,116239
2299,520,7,134074,116234
2301,517,7,134074,116230
2305,517,7,134079,116235
2307,518,7,134087,116245
2310,518,7,134087,116238
2312,520,8,134087,116238
2315,521,7,134081,116235
2317,516,7,134081,116238
2319,514,7,134085,116235
2322,517,7,134078,116230
2324,514,7,134078,116233
2327,515,7,134069,116229
2329,517,7,134070,116229
2332,518,7,134074,116225
2334,515,7,134074,116219
2337,514,7,134059,116223
2339,517,7,134055,116220
2341,514,8,134055,116217
2344,515,7,134050,116217
2347,518,7,134036,116218
2350,519,7,134038,116215
2352,518,8,134038,116214
2355,515,7,134045,116211
2357,512,7,134037,116209
2359,510,7,134037,116204
2362,512,7,134032,116204
2364,512,7,134036,116212
2367,511,8,134009,116206
2369,513,7,134019,116206
2372,513,7,134003,116203
2374,523,7,134003,116203
2377,523,7,134002,116206
2379,519,7,134022,116206
2381,515,7,133998,116200
2384,518,7,133989,116202
2386,516,7,134025,116202
2390,512,7,133986,116206
2392,520,7,133986,116206
2395,518,7,134025,116204
2397,515,8,134029,116204
2399,509,7,134026,116202
2402,516,7,134026,116211
2404,516,7,134024,116201
2407,514,8,134030,116201
2409,510,7,134030,116203
2412,510,7,134030,116210
2414,513,7,134034,116210
2417,514,7,134044,116213
2419,516,7,134044,116202
2421,519,7,134027,116207
2424,519,7,134053,116207
2426,516,7,134065,116214
2429,511,7,134065,116211
2432,511,7,134070,116220
2435,520,8,134084,116220
2437,523,8,134084,116220
2439,530,7,134087,116220
2442,536,8,134112,116231
2444,539,7,134112,116228
2447,536,7,134107,116230
2449,532,8,134114,116232
2452,532,7,134130,116233
2454,534,7,134132,116243
2457,534,7,134133,116243
2459,535,7,134155,116242
2461,533,7,134155,116245
2464,530,7,134168,116252
2466,529,7,134172,116255
2469,529,7,134182,116258
2471,529,7,134191,116260
2475,529,7,134199,116260
2477,529,7,134213,116265
2479,532,7,134212,116265
2482,531,7,134247,116270
2484,522,7,134260,116270
2487,519,7,134228,116274
2489,520,7,134260,116282
2492,520,7,134266,116278
2494,518,7,134279,116290
2497,512,7,134286,116290
2499,511,7,134272,116293
2501,514,7,134287,116293
2504,516,7,134296,116297
2506,515,7,134306,116296
2509,513,7,134301,116292
2511,512,7,134309,116293
2514,511,7,134315,116297
2516,510,7,134317,116306
2519,510,7,134318,116311
2522,510,8,134320,116305
2524,508,7,134332,116311
2527,508,7,134331,116307
2529,507,7,134341,116316
2532,506,7,134346,116318
2534,508,7,134356,116311
2537,509,7,134359,116320
2539,510,7,134367,116319
2541,511,7,134359,116320
2544,512,7,134365,116316
2546,510,7,134363,116316
2549,509,7,134363,116320
2551,509,7,134375,116316
2554,509,7,134376,116317
2556,509,7,134381,116319
2558,507,7,134385,116320
2562,512,7,134372,116319
2564,511,7,134383,116322
2567,511,7,134384,116325
2569,513,7,134394,116330
2572,511,7,134394,116327
2574,513,7,134402,116333
2577,514,7,134393,116333
2579,516,7,134400,116322
2581,516,7,134404,116328
2584,513,7,134407,116331
2586,507,7,134412,116331
2589,509,7,134412,116325
2591,512,7,134404,116336
2594,511,7,134412,116335
2596,510,7,134411,116330
2598,511,7,134409,116330
2601,513,7,134414,116331
2604,513,7,134425,116337
2607,511,7,134419,116339
2609,511,7,134422,116336
2612,511,7,134423,116343
2614,512,7,134423,116340
2617,512,7,134438,116336
2619,511,7,134426,116349
2621,510,7,134432,116348
2624,505,7,134439,116340
2626,501,7,134442,116342
2629,506,7,134447,116353
2631,501,7,134450,116355
2634,504,7,134455,116341
2636,508,7,134460,116356
2638,507,7,134463,116353
2641,505,7,134468,116345
2643,507,7,134465,116357
2647,510,7,134466,116361
2649,512,7,134478,116361
2652,511,7,134476,116342
2654,513,7,134484,116365
2657,516,7,134481,116361
2659,517,7,134484,116366
2661,516,7,134490,116349
2664,519,7,134497,116349
2666,514,7,134499,116375
2669,512,7,134501,116373
2671,514,7,134503,116375
2674,513,7,134510,116354
2676,515,7,134506,116383
2678,516,7,134511,116376
2681,518,7,134521,116378
2683,516,7,134521,116379
2686,512,7,134524,116386
2689,505,7,134541,116388
2692,509,7,134536,116388
2694,514,7,134538,116383
2697,517,7,134549,116386
2699,519,7,134553,116388
2701,518,7,134550,116385
2704,515,7,134564,116392
2706,508,7,134563,116396
2709,511,7,134574,116389
2711,517,7,134570,116394
2714,517,7,134576,116396
2716,519,7,134571,116398
2718,524,7,134571,116395
2721,532,7,134577,116400
2723,533,7,134594,116398
2726,534,7,134594,116401
2728,552,7,134604,116406
2732,564,7,134604,116410
2734,581,7,134600,116411
2737,590,7,134607,116418
2739,594,7,134628,116414
2741,599,7,134623,116414
2744,599,7,134627,116408
2746,579,7,134623,116411
2749,562,8,134645,116425
2751,549,7,134643,116422
2754,537,7,134643,116442
2756,520,7,134652,116444
2758,508,7,134666,116444
2761,490,7,134673,116435
2763,486,8,134673,116442
2766,485,7,134686,116451
2768,490,7,134689,116440
2771,492,7,134698,116440
2774,492,7,134702,116452
2777,493,7,134702,116455
2779,499,7,134718,116456
2781,501,7,134732,116456
2784,497,7,134742,116467
2786,499,7,134742,116464
2789,501,7,134758,116471
2791,501,7,134756,116468
2794,500,7,134768,116475
2796,500,7,134768,116475
2798,502,7,134778,116480
2801,504,7,134790,116480
2803,501,7,134790,116490
2806,500,7,134810,116488
2808,502,7,134823,116488
2811,502,7,134842,116494
2813,499,7,134842,116499
2817,499,7,134838,116504
2819,503,7,134850,116506
2821,500,7,134850,116516
2824,501,7,134870,116517
2826,504,7,134881,116530
2829,504,7,134887,116524
2831,505,8,134900,116524
2834,505,7,134908,116531
2836,503,7,134908,116533
2838,502,7,134918,116542
2841,506,7,134935,116556
2843,502,7,134935,116552
2846,504,7,134948,116552
2848,509,7,134963,116551
2851,509,7,134974,116557
2853,504,7,134974,116559
2856,505,7,134981,116562
2859,507,7,135001,116569
2861,503,7,135001,116570
2864,506,7,135005,116570
2866,510,7,134996,116576
2869,511,7,134993,116583
2871,511,7,134993,116586
2874,507,7,135044,116589
2876,499,7,135043,116590
2878,500,7,135043,116595
2881,505,7,135052,116595
2883,507,7,135067,116594
2886,509,7,135067,116601
2888,512,7,135075,116601
2891,513,7,135075,116600
2893,511,7,135044,116608
2896,510,7,135078,116608
2898,506,7,135094,116604
2900,503,7,135062,116611
2904,510,7,135062,116618
2906,511,7,135074,116617
2909,510,7,135099,116617
2911,508,7,135108,116619
2914,502,7,135108,116618
2916,505,7,135119,116615
2918,508,7,135113,116615
2921,509,7,135113,116618
2923,509,7,135118,116623
2926,509,7,135107,116623
2928,508,7,135105,116624
2931,506,7,135105,116610
2933,511,7,135092,116611
2936,514,7,135058,116611
2938,514,7,135048,116603
2940,513,7,135028,116599
2944,522,7,135028,116563
2946,524,7,135001,116549
2949,524,7,134907,116549
2951,521,7,134907,116527
2954,519,7,134861,116518
2956,521,7,134810,116498
2958,529,7,134772,116472
2961,533,7,134700,116456
2963,530,7,134645,116408
2966,525,7,134600,116391
2968,524,7,134544,116391
2971,528,7,134492,116381
2973,531,7,134442,116357
2976,532,7,134405,116338
2978,531,7,134374,116324
2980,530,7,134319,116295
2983,529,7,134266,116287
2985,527,7,134249,116269
2989,525,7,134212,116249
2991,520,7,134153,116233
2994,525,7,134077,116222
2996,530,7,134032,116206
2998,531,7,134032,116191
3001,528,7,134002,116177
3003,529,7,133957,116162
3006,527,7,133932,116154
3008,524,7,133913,116132
3011,520,7,133885,116128
3013,513,7,133847,116121
3016,508,7,133835,116110
3018,506,7,133819,116103
3020,504,7,133796,116097
3023,500,7,133789,116093
3025,499,7,133776,116089
3028,497,7,133745,116086
3031,495,7,133748,116069
3034,491,7,133745,116073
3036,496,7,133737,116062
3038,495,7,133723,116062
3041,496,7,133719,116057
3043,496,7,133712,116052
3046,494,7,133709,116056
3048,491,7,133702,116051
3051,492,7,133693,116047
3053,495,7,133698,116044
3056,501,7,133697,116048
3058,501,7,133685,116054
3060,504,7,133694,116043
3063,506,7,133694,116053
3065,506,7,133695,116048
3068,504,7,133701,116049
3070,505,7,133698,116048
3074,505,7,133707,116050
3076,501,7,133713,116051
3078,496,7,133717,116055
3081,498,7,133720,116051
3083,497,7,133734,116059
3086,496,7,133736,116061
3088,498,7,133733,116069
3091,500,7,133744,116063
3093,499,7,133738,116061
3096,496,7,133751,116069
3098,501,7,133741,116064
3100,500,7,133746,116068
3103,500,7,133753,116063
3105,498,7,133751,116064
3108,496,7,133750,116072
3110,491,7,133757,116067
3113,494,7,133762,116057
3116,498,7,133756,116064
3118,497,7,133769,116062
3121,495,7,133751,116063
3123,499,7,133749,116061
3126,495,7,133749,116064
3128,495,7,133749,116058
3131,500,7,133749,116061
3133,499,7,133742,116053
3136,497,7,133736,116052
3138,501,7,133728,116058
3140,497,7,133732,116053
3143,497,7,133732,116030
3145,502,7,133719,116047
3148,502,7,133721,116047
3150,498,7,133719,116044
3153,502,7,133715,116042
3155,508,7,133713,116042
3158,511,7,133714,116038
3161,513,7,133707,116041
3163,510,7,133705,116040
3166,506,7,133716,116042
3168,498,7,133717,116040
3171,503,7,133716,116033
3173,507,7,133713,116042
3176,510,7,133712,116030
3178,512,7,133715,116034
3180,510,7,133722,116039
3183,506,7,133720,116043
3185,497,7,133734,116038
3188,500,7,133728,116036
3190,506,7,133731,116040
3193,506,7,133739,116036
3195,506,7,133750,116044
3197,508,7,133749,116039
3201,508,7,133758,116051
3203,506,7,133757,116043
3206,504,7,133764,116052
3208,498,7,133773,116049
3211,501,7,133783,116052
3213,506,7,133775,116051
3216,507,7,133775,116051
3218,510,7,133778,116050
3220,509,7,133776,116050
3223,507,7,133789,116059
3225,498,7,133785,116051
3228,504,7,133783,116059
3230,507,7,133784,116049
3233,509,7,133784,116071
3235,511,7,133790,116063
3237,510,7,133794,116063
3240,503,7,133797,116056
3243,500,7,133793,116056
3246,499,7,133792,116071
3248,503,7,133789,116042
3251,503,7,133784,116053
3253,501,7,133788,116050
3256,501,7,133779,116050
3258,498,7,133781,116049
3260,498,7,133781,116049
3263,502,7,133777,116044
3265,501,7,133767,116045
3268,499,7,133773,116046
3270,503,7,133767,116036
3273,504,7,133765,116036
3275,500,7,133765,116041
3277,501,7,133764,116040
3280,506,7,133759,116031
3282,504,7,133759,116033
3286,504,7,133752,116028
3288,505,7,133746,116028
3291,506,7,133752,116035
3293,502,7,133752,116033
3296,501,7,133750,116028
3298,505,7,133731,116032
3300,503,7,133731,116027
3303,504,7,133745,116028
3305,505,7,133737,116027
3308,505,7,133743,116022
3310,506,7,133744,116022
3313,506,7,133749,116024
3315,503,7,133749,116019
3317,502,7,133746,116023
3320,504,7,133738,116028
3322,504,7,133743,116028
3325,500,7,133752,116025
3328,505,7,133752,116026
3331,507,7,133752,116026
3333,508,7,133761,116026
3336,507,7,133762,116035
3338,506,7,133762,116033
3340,507,7,133767,116035
3343,507,7,133753,116031
3345,502,7,133753,116031
3348,503,7,133780,116031
3350,505,7,133798,116037
3353,504,7,133771,116029
3355,509,7,133771,116038
3357,507,7,133799,116042
3360,506,7,133784,116048
3362,498,7,133784,116050
3365,500,7,133819,116050
3367,504,7,133836,116046
3371,507,7,133836,116057
3373,509,8,133835,116057
3376,508,7,133851,116057
3378,506,7,133851,116058
3380,512,7,133867,116061
3383,515,7,133869,116061
3385,513,7,133889,116063
3388,506,7,133889,116077
3390,512,7,133891,116079
3393,514,7,133905,116079
3395,508,7,133905,116088
3397,509,7,133924,116080
3400,510,7,133924,116080
3402,508,7,133935,116091
3405,505,7,133935,116094
3407,507,7,133941,116094
3410,506,7,133958,116094
3412,503,7,133961,116099
3416,501,7,133961,116104
3418,500,7,133977,116104
3420,498,7,133981,116112
3423,496,7,133981,116112
3425,498,7,133983,116106
3428,501,7,133992,116106
3430,501,7,134005,116116
3433,500,7,134005,116112
3435,496,7,134008,116119
3437,502,7,134031,116119
3440,505,7,134031,116130
3442,508,7,134032,116130
3445,509,7,134066,116128
3447,510,7,134047,116135
3450,509,7,134047,116139
3452,512,7,134079,116141
3456,511,7,134067,116141
3458,512,7,134070,116143
3460,514,7,134070,116153
3463,514,7,134080,116153
3465,518,7,134085,116155
3468,519,7,134102,116152
3470,517,7,134102,116151
3473,515,7,134097,116156
3475,510,7,134113,116157
3477,508,7,134123,116165
3480,507,7,134131,116168
3482,508,7,134128,116166
3485,508,7,134135,116165
3487,509,7,134128,116165
3490,508,7,134131,116165
3492,508,7,134146,116164
3495,508,7,134141,116171
3497,507,7,134138,116169
3500,507,7,134145,116168
3503,505,7,134148,116177
3505,502,7,134156,116173
3508,500,7,134155,116175
3510,499,7,134166,116174
3513,500,7,134156,116178
3515,500,7,134162,116173
3517,498,7,134165,116184
3520,498,7,134170,116177
3522,498,7,134178,116179
3525,497,7,134185,116189
3527,496,7,134172,116193
3530,494,7,134174,116195
3532,492,7,134195,116195
3535,490,7,134199,116191
3537,492,7,134193,116189
3539,494,7,134190,116192
3543,497,7,134199,116198
3545,500,7,134204,116194
3548,500,7,134210,116197
3550,498,7,134205,116204
3553,501,7,134226,116198
3555,501,7,134219,116200
3557,498,7,134228,116204
3560,500,7,134230,116204
3562,500,7,134231,116200
3565,496,7,134234,116210
3567,498,7,134238,116214
3570,503,7,134236,116220
3572,504,7,134241,116211
3575,501,7,134251,116209
3577,502,7,134238,116212
3579,502,7,134250,116219
3582,503,7,134250,116224
3585,499,7,134250,116216
3588,498,7,134253,116224
3590,498,7,134257,116226
3593,497,7,134264,116226
3595,497,7,134267,116223
3597,499,7,134276,116232
3600,501,7,134268,116219
3602,501,7,134281,116230
3605,498,7,134279,116236
3607,499,7,134282,116231
3610,499,7,134290,116234
3612,500,7,134286,116242
3615,499,7,134293,116233
3617,497,7,134297,116237
3619,501,7,134304,116230
3622,501,7,134305,116245
3624,494,7,134301,116240
3628,494,7,134312,116252
3630,494,7,134318,116248
3633,495,7,134320,116243
3635,499,7,134328,116250
3637,503,7,134331,116255
3640,507,7,134334,116263
3642,506,7,134334,116255
3645,501,7,134342,116259
3647,494,7,134343,116264
3650,499,7,134343,116261
3652,504,7,134345,116274
3655,507,7,134364,116265
3657,509,7,134360,116270
3659,507,7,134361,116275
3662,503,7,134368,116276
3664,493,7,134373,116279
3667,496,7,134378,116283
3670,502,7,134392,116284
3673,503,7,134395,116268
3675,513,7,134397,116287
3677,523,7,134409,116290
3680,533,7,134406,116292
3682,547,7,134406,116289
3685,556,7,134413,116299
3687,570,7,134424,116298
3690,576,7,134421,116290
3692,580,7,134429,116299
3695,577,8,134437,116302
3697,570,7,134447,116300
3699,555,7,134452,116301
3702,540,7,134462,116308
3704,510,7,134462,116316
3707,493,7,134463,116313
3709,486,7,134471,116320
3713,483,7,134471,116324
3715,482,7,134487,116334
3717,481,7,134495,116334
3720,480,7,134512,116332
3722,476,7,134516,116329
3725,485,7,134515,116339
3727,490,7,134529,116337
3730,493,7,134529,116350
3732,496,7,134543,116354
3735,496,7,134547,116354
3737,488,7,134564,116354
3739,487,7,134564,116359
3742,490,7,134576,116360
3744,489,8,134580,116359
3747,487,7,134600,116387
3749,491,7,134603,116369
3752,492,7,134608,116369
3755,489,7,134623,116381
3757,490,7,134623,116380
3760,493,7,134639,116378
3762,494,7,134636,116378
3765,496,7,134649,116399
3767,494,7,134668,116398
3770,493,7,134672,116411
3772,496,7,134672,116408
3775,499,7,134688,116417
3777,500,7,134701,116419
3779,496,7,134701,116412
3782,495,7,134713,116419
3784,496,7,134722,116419
3787,496,7,134733,116428
3789,496,7,134733,116428
3792,493,7,134742,116437
3794,493,7,134745,116437
3796,489,7,134745,116441
3800,491,7,134767,116442
3802,494,7,134774,116442
3805,497,7,134783,116454
3807,495,7,134783,116457
3810,496,7,134798,116457
3812,498,7,134813,116457
3815,498,7,134809,116454
3817,496,7,134820,116473
3819,496,7,134828,116473
3822,499,7,134836,116473
3824,502,7,134836,116478
3827,502,7,134850,116484
3829,503,7,134858,116484
3832,501,7,134849,116477
3834,503,7,134849,116484
3836,505,7,134870,116487
3840,507,7,134866,116487
3842,505,7,134879,116487
3845,500,7,134890,116490
3847,503,7,134890,116494
3850,504,7,134895,116494
3852,503,7,134895,116507
3855,505,7,134901,116509
3857,508,7,134917,116516
3859,505,7,134917,116508
3862,507,7,134926,116508
3864,511,7,134934,116504
3867,510,7,134934,116517
3869,507,7,134944,116517
3872,504,7,134950,116527
3874,500,7,134950,116523
3876,503,7,134954,116519
3879,505,7,134950,116519
3881,504,7,134961,116524
3885,504,7,134961,116523
3887,508,7,134954,116516
3890,508,7,134928,116516
3892,506,7,134907,116513
3895,505,7,134893,116513
3897,505,7,134893,116492
3899,504,7,134874,116482
3902,504,7,134819,116482
3904,502,7,134819,116448
3907,501,7,134776,116423
3909,503,7,134733,116404
3912,516,7,134625,116404
3914,524,7,134625,116360
3916,529,7,134565,116360
3919,536,7,134464,116337
3921,539,7,134396,116332
3924,539,7,134396,116281
3927,533,7,134343,116264
3930,529,7,134290,116244
3932,530,7,134249,116220
3935,533,7,134195,116220
3937,535,7,134129,116207
3939,535,7,134129,116174
3942,528,7,134061,116154
3944,524,7,134025,116145
3947,523,7,133979,116125
3949,524,7,133935,116106
3952,524,7,133903,116106
3954,525,7,133876,116094
3956,528,7,133840,116087
3959,526,7,133830,116064
3961,514,7,133791,116064
3964,509,7,133744,116042
3966,509,7,133729,116039
3970,507,7,133713,116016
3972,497,7,133696,116016
3975,496,7,133656,116010
3977,494,7,133628,115998
3979,492,7,133620,116002
3982,488,7,133626,115992
3984,486,7,133596,115992
3987,483,7,133595,115992
3989,479,7,133578,115978
3992,478,7,133569,115984
3994,477,7,133558,115974
3996,476,7,133555,115971
3999,471,7,133552,115965
4001,472,7,133548,115967
4004,475,7,133546,115970
4006,478,7,133556,115964
4009,479,7,133546,115969
4012,476,7,133546,115967
4015,477,7,133553,115969
4017,484,7,133554,115969
4019,490,7,133558,115966
4022,492,7,133561,115969
4024,490,7,133564,115964
4027,488,7,133567,115978
4029,486,7,133562,115969
4032,485,7,133574,115977
4034,482,7,133582,115974
4036,485,7,133597,115975
4039,485,7,133601,115980
4041,487,7,133609,115979
4044,492,7,133598,115982
4046,495,7,133611,115984
4049,494,7,133617,115987
4051,495,7,133618,115984
4055,496,7,133621,115995
4057,497,7,133630,115986
4059,497,7,133641,115987
4062,495,7,133641,115990
4064,490,7,133654,115994
4067,492,7,133640,115991
4069,495,7,133653,115994
4072,494,7,133653,115992
4074,494,7,133662,115994
4076,495,7,133660,116000
4079,498,7,133661,115996
4081,498,7,133668,116000
4084,496,7,133662,115997
4086,495,7,133660,115999
4089,494,7,133667,115986
4091,495,7,133666,116000
4094,495,7,133658,116000
4097,489,7,133658,115990
4099,489,7,133662,115994
4102,492,7,133660,115985
4104,492,7,133664,115993
4107,491,7,133647,115987
4109,488,7,133667,115983
4112,492,7,133660,115982
4114,492,7,133666,115993
4116,488,7,133672,115979
4119,486,7,133672,115984
4121,484,7,133678,115998
4124,482,7,133672,115999
4126,479,7,133678,116007
4129,484,7,133687,115999
4131,491,7,133684,115998
4134,494,7,133701,115999
4136,498,7,133706,115987
4139,505,7,133706,115990
4142,501,7,133714,116008
4144,495,7,133723,115988
4147,491,7,133726,115994
4149,486,7,133728,115990
4152,483,7,133737,115998
4154,478,7,133745,116021
4156,482,7,133737,116016
4159,486,7,133747,116017
4161,488,7,133751,116027
4164,487,7,133756,116032
4166,484,7,133762,116033
4169,490,7,133765,116021
4171,500,7,133754,116024
4174,501,7,133764,116016
4176,498,7,133760,116014
4178,495,7,133760,116029
4182,493,7,133761,116030
4184,488,7,133757,116026
4187,492,7,133760,116020
4189,501,7,133756,116012
4192,502,7,133748,116027
4194,504,7,133755,116017
4196,506,7,133755,116011
4199,508,7,133748,116017
4201,506,7,133738,116007
4204,502,7,133736,116017
4206,503,7,133733,116009
4209,504,7,133733,116008
4211,507,7,133722,116013
4214,501,7,133714,116000
4216,502,7,133718,115997
4218,508,7,133705,115997
4221,513,7,133704,115996
4224,518,7,133693,115992
4227,524,7,133689,115997
4229,525,7,133688,115991
4232,525,7,133688,116002
4234,525,7,133676,116005
4236,522,7,133679,116005
4239,517,7,133670,115986
4241,507,7,133672,115984
4244,511,7,133660,115979
4246,512,7,133660,115977
4249,514,7,133655,115974
4251,514,7,133659,115974
4254,512,7,133660,115983
4256,503,7,133657,115976
4258,501,7,133657,115973
4261,504,7,133645,115975
4263,500,7,133659,115974
4267,498,7,133659,115981
4269,500,7,133654,115981
4272,503,7,133662,115980
4274,498,7,133662,115982
4276,496,7,133661,115986
4279,499,7,133662,115980
4281,499,7,133668,115980
4284,495,7,133667,115977
4286,498,7,133667,115981
4289,504,7,133669,115983
4291,507,7,133676,115983
4294,507,7,133688,115978
4296,503,7,133688,115981
4298,502,7,133681,115984
4301,502,7,133698,115992
4303,499,7,133698,115993
4306,499,7,133705,115989
4308,497,7,133712,115995
4312,493,7,133712,115999
4314,495,7,133723,115999
4316,499,7,133739,116004
4319,498,7,133739,116000
4321,499,7,133742,116007
4324,501,7,133750,116016
4326,498,7,133750,116011
4329,497,7,133770,116015
4331,498,7,133778,116015
4334,496,7,133790,116020
4336,496,7,133790,116023
4338,498,7,133780,116021
4341,498,7,133805,116021
4343,495,7,133825,116028
4346,492,7,133825,116035
4348,494,7,133830,116033
4352,494,7,133842,116033
4354,491,7,133842,116045
4356,489,7,133831,116047
4359,487,7,133867,116055
4361,483,7,133867,116057
4364,487,7,133891,116057
4366,493,7,133901,116059
4369,496,7,133907,116064
4371,494,7,133907,116070
4374,495,7,133913,116078
4376,497,7,133900,116078
4378,495,7,133900,116080
4381,491,7,133929,116076
4383,492,7,133948,116082
4386,497,7,133951,116093
4388,502,7,133957,116087
4391,505,7,133968,116087
4393,509,7,133979,116098
4396,513,7,133979,116098
4399,510,7,133983,116098
4401,505,7,133984,116106
4404,503,7,133984,116108
4406,503,7,133999,116101
4409,503,7,133993,116101
4411,506,7,134013,116104
4414,512,7,134013,116106
4416,507,7,134011,116116
4418,505,7,134014,116116
4421,507,7,134026,116119
4423,508,7,134029,116109
4426,508,7,134029,116121
4428,508,7,134042,116121
4431,515,7,134039,116121
4433,518,7,134039,116126
4435,523,7,134054,116126
4439,528,7,134055,116125
4441,531,7,134051,116130
4444,530,7,134050,116133
4446,520,7,134063,116130
4449,515,7,134063,116135
4451,509,7,134063,116138
4454,503,7,134069,116137
4456,504,7,134078,116135
4458,504,7,134085,116139
4461,501,7,134085,116152
4463,500,7,134085,116137
4466,504,7,134084,116138
4468,502,7,134084,116142
4471,500,7,134087,116137
4473,503,7,134096,116148
4475,503,7,134095,116151
4478,499,7,134106,116156
4481,494,7,134107,116153
4484,490,7,134121,116160
4486,485,7,134115,116153
4489,488,7,134124,116158
4491,488,7,134124,116161
4494,492,7,134124,116156
4496,496,7,134129,116161
4498,498,7,134123,116163
4501,501,7,134127,116161
4503,500,7,134132,116162
4506,497,7,134123,116167
4508,496,7,134129,116157
4511,493,7,134134,116166
4513,489,7,134137,116163
4515,492,7,134141,116169
4518,492,7,134145,116168
4520,496,7,134131,116164
4524,497,7,134135,116168
4526,493,7,134137,116174
4529,495,7,134139,116171
4531,496,7,134138,116174
4534,497,7,134144,116177
4536,497,7,134150,116170
4538,497,7,134151,116171
4541,499,7,134149,116171
4543,498,7,134138,116174
4546,497,7,134151,116181
4548,496,7,134152,116178
4551,493,7,134171,116179
4553,498,7,134154,116187
4555,497,7,134165,116190
4558,498,7,134163,116190
4560,498,7,134164,116189
4563,496,7,134170,116183
4566,491,7,134172,116183
4569,494,7,134179,116194
4571,499,7,134177,116189
4574,501,7,134184,116185
4576,500,7,134180,116189
4578,502,7,134189,116192
4581,502,7,134187,116195
4583,496,7,134188,116204
4586,495,7,134199,116196
4588,496,7,134200,116195
4591,496,7,134208,116196
4593,498,7,134209,116213
4595,500,7,134222,116211
4598,503,7,134227,116215
4600,502,7,134233,116208
4603,501,7,134224,116217
4605,494,7,134238,116223
4609,493,7,134244,116219
4611,495,7,134248,116226
4614,495,7,134251,116214
4616,494,7,134252,116218
4618,492,7,134256,116220
4621,492,7,134263,116240
4623,493,7,134271,116219
4626,500,7,134276,116220
4628,507,7,134283,116251
4631,521,7,134288,116246
4633,541,7,134291,116252
4635,558,7,134302,116253
4638,569,7,134305,116251
4640,573,7,134314,116257
4643,569,7,134321,116267
4645,552,7,134338,116276
4648,550,7,134341,116268
4651,536,7,134346,116268
4654,527,7,134349,116257
4656,518,7,134362,116267
4658,502,7,134369,116283
4661,490,7,134374,116289
4663,473,7,134388,116292
4666,475,7,134395,116292
4668,483,7,134398,116294
4671,484,7,134403,116298
4673,492,7,134420,116306
4675,501,7,134419,116303
4678,506,7,134429,116309
4680,505,7,134435,116307
4683,502,7,134448,116311
4685,493,7,134463,116318
4688,497,7,134460,116310
4690,500,7,134473,116327
4694,501,7,134473,116327
4696,505,7,134496,116334
4698,503,7,134505,116336
4701,500,7,134508,116351
4703,500,7,134512,116341
4706,502,7,134513,116350
4708,504,7,134536,116347
4711,506,7,134536,116365
4713,508,7,134544,116369
4715,506,7,134556,116369
4718,500,7,134568,116368
4720,496,7,134577,116365
4723,496,7,134584,116380
4725,500,7,134581,116370
4728,501,7,134598,116385
4730,497,7,134601,116379
4733,501,7,134601,116385
4736,506,7,134615,116391
4738,506,7,134623,116391
4741,502,7,134639,116393
4743,501,7,134640,116392
4746,509,7,134648,116403
4748,510,7,134648,116397
4751,512,7,134651,116411
4753,513,7,134672,116407
4755,511,7,134676,116407
4758,507,7,134682,116413
4760,501,7,134682,116411
4763,505,7,134694,116423
4765,505,7,134703,116425
4768,505,7,134703,116430
4770,508,7,134716,116430
4773,510,7,134725,116429
4775,508,7,134725,116433
4777,508,7,134724,116432
4781,508,7,134734,116439
4783,507,7,134739,116439
4786,504,7,134743,116440
4788,501,7,134759,116438
4791,503,7,134760,116438
4793,506,7,134760,116452
4795,509,7,134769,116456
4798,509,7,134781,116457
4800,508,7,134783,116457
4803,504,7,134783,116454
4805,500,7,134783,116468
4808,505,7,134795,116470
4810,509,7,134802,116470
4813,509,7,134813,116469
4815,508,7,134813,116469
4817,510,7,134813,116473
4820,510,7,134810,116474
4823,504,7,134810,116474
4826,506,7,134833,116483
4828,508,7,134838,116483
4831,506,7,134847,116481
4833,511,7,134847,116481
4835,520,7,134855,116487
4838,523,7,134848,116490
4840,518,7,134848,116478
4843,519,7,134811,116478
4845,522,7,134845,116482
4848,520,7,134818,116474
4850,515,7,134818,116458
4853,515,7,134802,116451
4855,516,7,134713,116451
4857,515,7,134714,116445
4860,511,7,134714,116412
4862,509,7,134669,116393
4866,508,7,134533,116393
4868,505,7,134519,116371
4871,504,7,134460,116325
4873,514,7,134460,116304
4875,526,7,134398,116284
4878,529,7,134284,116284
4880,527,7,134230,116260
4883,525,7,134230,116229
4885,525,7,134173,116198
4888,523,7,134068,116198
4890,519,7,134035,116184
4893,511,7,134035,116141
4895,512,7,133945,116141
4897,514,7,133904,116135
4900,516,7,133904,116095
4902,524,7,133867,116084
4905,526,7,133781,116084
4908,523,7,133753,116066
4911,516,7,133753,116045
4913,518,7,133719,116027
4915,519,7,133654,116027
4918,516,7,133654,116011
4920,506,7,133625,116011
4923,504,7,133595,115991
4925,502,7,133557,115988
4928,499,7,133557,115974
4930,501,7,133554,115961
4933,496,7,133524,115961
4935,496,7,133510,115958
4937,495,7,133510,115951
4940,494,7,133479,115946
4942,494,7,133467,115946
4945,496,7,133457,115942
4947,497,7,133464,115938
4951,496,7,133446,115932
4953,492,7,133447,115943
4955,489,7,133445,115932
4958,487,7,133437,115932
4960,483,7,133447,115934
4963,480,7,133456,115938
4965,482,7,133436,115930
4968,483,7,133450,115932
4970,481,7,133455,115944
4973,482,7,133472,115940
4975,482,7,133451,115941
4977,483,7,133457,115934
4980,483,7,133464,115937
4982,483,7,133466,115950
4985,483,7,133479,115946
4987,481,7,133492,115948
4990,483,7,133499,115948
4993,492,7,133493,115952
4995,496,7,133504,115956
4998,494,7,133512,115962
5000,492,7,133528,115966
5003,490,7,133529,115972
5005,490,7,133538,115966
5008,489,7,133552,115969
5010,494,7,133557,115973
5013,497,7,133565,115974
5015,496,7,133577,115980
5017,497,7,133588,115980
5020,504,7,133585,115987
5022,504,7,133592,115994
5025,505,7,133600,115994
5027,508,7,133613,115995
5030,513,7,133618,116000
5032,513,7,133624,115993
5035,510,7,133626,115994
5038,511,7,133638,115999
5040,509,7,133644,115999
5043,508,7,133633,116004
5045,509,7,133652,116007
5048,508,7,133653,116012
5050,509,7,133661,116015
5053,511,7,133663,116016
5055,514,7,133655,116009
5057,515,7,133666,116010
5060,514,7,133667,116014
5062,508,7,133668,116010
5065,510,7,133683,116009
5067,512,7,133680,116018
5070,512,7,133683,116016
5072,512,7,133691,116022
5074,512,7,133701,116032
5078,515,7,133719,116023
5080,514,7,133722,116027
5083,512,7,133717,116035
5085,511,7,133723,116034
5088,511,7,133742,116030
5090,512,7,133735,116045
5093,510,7,133747,116048
5095,507,7,133747,116040
5097,510,7,133758,116044
5100,510,7,133767,116036
5102,502,7,133768,116052
5105,503,7,133783,116057
5107,504,7,133784,116052
5110,503,7,133785,116048
5112,506,7,133799,116057
5114,510,7,133795,116057
5117,512,7,133786,116053
5120,510,7,133788,116058
5123,506,7,133793,116053
5125,506,7,133780,116060
5128,506,7,133791,116059
5130,509,7,133784,116065
5133,508,7,133784,116030
5135,505,7,133777,116026
5137,501,7,133769,116045
5140,498,7,133764,116051
5142,494,7,133772,116051
5145,499,7,133752,116050
5147,508,7,133746,116036
5150,508,7,133732,116020
5152,511,7,133731,116038
5154,514,7,133721,116024
5157,515,7,133717,116030
5159,511,7,133711,116021
5163,506,7,133701,116023
5165,508,7,133701,116021
5168,513,7,133689,116007
5170,518,7,133674,116004
5173,519,7,133674,116000
5175,520,7,133661,116003
5177,516,7,133655,115995
5180,512,7,133646,115989
5182,507,7,133639,116003
5185,504,7,133628,116001
5187,503,7,133639,115980
5190,504,7,133625,115980
5192,506,7,133622,115987
5194,508,7,133622,115980
5197,511,7,133610,115991
5199,510,7,133609,115984
5202,507,7,133612,115976
5204,504,7,133597,115972
5208,503,7,133594,115972
5210,508,7,133603,115981
5213,508,7,133598,115975
5215,508,7,133593,115973
5217,510,7,133592,115992
5220,511,7,133594,115971
5222,513,7,133600,115993
5225,513,7,133595,115993
5227,512,7,133606,115985
5230,510,7,133606,115993
5232,510,7,133613,115991
5234,510,7,133615,115991
5237,508,7,133625,115983
5239,505,7,133630,115985
5242,512,7,133631,115994
5244,514,7,133631,115988
5248,517,7,133644,116004
5250,519,7,133652,116004
5253,520,7,133661,116000
5255,514,7,133669,116009
5257,512,7,133670,116009
5260,514,7,133683,116015
5262,517,7,133683,116022
5265,521,7,133698,116019
5267,522,7,133708,116019
5270,520,7,133719,116028
5272,518,7,133719,116030
5274,518,7,133725,116032
5277,519,7,133746,116040
5279,515,7,133746,116047
5282,514,7,133760,116041
5284,516,7,133767,116041
5287,516,7,133790,116047
5289,512,7,133790,116053
5293,511,7,133790,116059
5295,514,7,133812,116062
5297,511,7,133812,116071
5300,512,7,133828,116071
5302,514,7,133839,116071
5305,514,7,133841,116081
5307,513,7,133841,116076
5310,511,7,133854,116090
5312,508,7,133871,116099
5314,506,7,133871,116094
5317,507,7,133886,116094
5319,508,8,133913,116100
5322,508,8,133905,116101
5324,509,7,133910,116101
5327,510,7,133910,116108
5329,519,7,133910,116117
5332,518,7,133913,116114
5335,514,7,133939,116114
5337,511,7,133926,116121
5340,514,7,133930,116127
5342,512,7,133964,116127
5345,508,7,133940,116130
5347,516,8,133940,116128
5350,513,7,133974,116125
5352,510,8,133984,116125
5354,508,7,133984,116134
5357,510,7,133992,116134
5359,509,7,133995,116134
5362,513,7,133995,116140
5364,513,7,134000,116139
5367,517,7,134001,116142
5369,518,7,134018,116142
5372,517,8,134018,116144
5374,511,7,134017,116153
5377,510,7,134018,116153
5380,514,8,134034,116150
5382,517,7,134028,116157
5385,523,7,134028,116152
5387,526,7,134030,116152
5390,527,7,134038,116152
5392,525,7,134038,116161
5394,518,7,134045,116161
5397,523,7,134058,116157
5399,527,7,134053,116168
5402,528,7,134053,116170
5404,524,7,134045,116165
5407,522,7,134048,116167
5409,525,8,134051,116169
5412,530,7,134062,116169
5414,532,7,134080,116173
5416,533,7,134080,116166
5420,525,7,134062,116176
5422,520,7,134064,116183
5425,519,7,134062,116179
5427,520,7,134067,116185
5430,520,7,134071,116185
5432,522,7,134081,116180
5434,524,7,134080,116177
5437,517,7,134077,116189
5439,513,7,134093,116189
5442,512,7,134085,116187
5444,514,7,134097,116190
5447,514,7,134103,116189
5449,508,7,134117,116192
5452,506,7,134107,116192
5454,503,7,134113,116194
5456,501,7,134110,116199
5459,499,7,134126,116198
5462,498,7,134124,116203
5465,494,7,134122,116203
5467,500,7,134106,116196
5470,502,7,134135,116203
5472,503,7,134126,116202
5474,502,7,134124,116200
5477,497,7,134126,116204
5479,499,7,134135,116204
5482,502,7,134122,116214
5484,504,7,134141,116208
5487,504,7,134142,116220
5489,500,7,134148,116221
5492,502,7,134148,116224
5494,510,7,134154,116221
5496,516,7,134148,116214
5499,517,7,134157,116228
5501,515,7,134152,116226
5505,511,7,134153,116230
5507,509,7,134161,116227
5510,504,7,134167,116231
5512,507,7,134172,116231
5514,508,7,134176,116232
5517,505,7,134190,116232
5519,509,7,134170,116237
5522,514,7,134177,116238
5524,515,7,134185,116233
5527,513,7,134188,116239
5529,508,7,134183,116245
5532,507,7,134194,116248
5534,509,7,134197,116249
5536,510,7,134201,116254
5539,513,7,134206,116252
5541,512,7,134215,116259
5544,510,7,134226,116257
5547,509,7,134222,116254
5550,505,7,134225,116258
5552,510,7,134218,116264
5554,509,7,134228,116270
5557,510,7,134232,116259
5559,509,7,134243,116269
5562,506,7,134239,116265
5564,501,7,134248,116279
5567,502,7,134254,116276
5569,505,7,134256,116274
5572,507,7,134273,116279
5574,507,7,134264,116289
5576,504,7,134272,116284
5579,506,7,134279,116284
5581,503,7,134285,116296
5584,504,7,134293,116292
5586,506,7,134299,116298
5590,509,7,134296,116295
5592,519,7,134307,116302
5594,530,7,134316,116307
5597,543,7,134313,116301
5599,556,7,134322,116303
5602,572,7,134324,116312
5604,593,7,134331,116314
5607,599,7,134336,116311
5609,600,7,134343,116310
5612,594,7,134345,116314
5614,578,7,134357,116298
5616,565,7,134360,116303
5619,546,7,134372,116311
5621,513,7,134370,116331
5624,499,7,134387,116329
5626,488,7,134381,116333
5629,482,7,134385,116336
5632,487,7,134402,116344
5634,498,7,134400,116342
5637,504,7,134418,116344
5639,504,7,134417,116349
5642,502,7,134425,116351
5644,495,7,134439,116361
5647,499,7,134440,116355
5649,506,7,134448,116362
5652,505,7,134461,116348
5654,501,7,134470,116351
5656,497,7,134474,116364
5659,495,7,134481,116378
5661,490,7,134499,116376
5664,495,7,134501,116378
5666,503,7,134501,116379
5669,504,7,134518,116387
5671,508,7,134530,116384
5673,516,7,134540,116386
5677,518,7,134539,116398
5679,516,7,134551,116397
5682,512,7,134561,116408
5684,504,7,134572,116407
5687,508,7,134572,116413
5689,513,7,134598,116416
5692,509,7,134597,116423
5694,507,7,134623,116429
5696,510,7,134623,116429
5699,510,7,134632,116445
5701,512,7,134639,116438
5704,513,7,134652,116448
5706,515,7,134658,116446
5709,516,7,134658,116469
5711,518,7,134677,116465
5713,517,7,134688,116465
5716,512,7,134694,116470
5719,509,7,134704,116461
5722,508,7,134706,116476
5724,511,7,134713,116467
5727,510,7,134714,116472
5729,509,7,134719,116481
5732,509,7,134734,116481
5734,507,7,134738,116483
5736,509,7,134738,116482
5739,514,7,134746,116486
5741,513,7,134755,116490
5744,513,7,134762,116496
5746,515,7,134760,116496
5749,516,7,134753,116487
5751,512,7,134753,116494
5753,511,7,134752,116491
5756,515,7,134762,116492
5758,512,7,134762,116493
5762,512,7,134770,116494
5764,514,7,134759,116494
5767,514,7,134765,116492
5769,512,7,134765,116490
5772,511,7,134761,116493
5774,515,7,134760,116494
5776,513,7,134760,116495
5779,514,7,134753,116493
5781,518,7,134752,116496
5784,518,7,134751,116494
5786,520,7,134742,116494
5789,520,7,134744,116496
5791,517,7,134744,116482
5793,515,7,134732,116480
5796,518,7,134701,116475
5798,518,7,134682,116475
5801,515,7,134664,116447
5804,520,7,134664,116445
5807,522,7,134621,116423
5809,524,7,134545,116423
5812,523,7,134503,116408
5814,523,7,134503,116373
5816,525,7,134439,116356
5819,525,7,134344,116356
5821,523,7,134301,116327
5824,519,7,134301,116290
5826,526,8,134235,116264
5829,530,7,134133,116264
5831,528,7,134133,116231
5833,530,7,134082,116210
5836,533,7,133982,116210
5838,532,7,133943,116188
5841,530,7,133943,116150
5843,531,7,133857,116126
5847,530,7,133793,116126
5849,522,7,133793,116096
5852,525,7,133769,116084
5854,528,7,133665,116072
5856,524,7,133665,116048
5859,527,8,133569,116048
5861,530,7,133569,116041
5864,530,7,133569,116022
5866,525,7,133548,116012
5869,524,7,133523,116012
5871,526,8,133480,115998
5873,529,7,133480,115984
5876,522,7,133447,115979
5878,520,7,133425,115979
5881,522,7,133398,115972
5883,523,7,133383,115964
5886,517,7,133383,115951
5889,514,7,133369,115949
5892,513,7,133367,115949
5894,514,7,133348,115937
5896,514,8,133348,115928
5899,507,7,133327,115936
5901,504,7,133320,115931
5904,503,7,133321,115936
5906,503,7,133314,115929
5909,503,7,133310,115929
5911,504,7,133311,115926
5913,505,7,133311,115929
5916,498,7,133317,115932
5918,494,7,133312,115932
5921,495,7,133314,115920
5923,497,7,133322,115924
5926,495,7,133322,115924
5928,495,7,133325,115924
5932,497,7,133328,115924
5934,500,7,133333,115928
5936,504,7,133337,115928
5939,503,7,133344,115930
5941,498,7,133360,115934
5944,495,7,133361,115927
5946,492,7,133373,115937
5949,491,7,133361,115939
5951,488,7,133378,115936
5953,487,7,133382,115947
5956,486,7,133396,115942
5958,487,7,133386,115943
5961,488,7,133406,115948
5963,489,7,133410,115946
5966,488,7,133415,115942
5968,489,7,133410,115943
5971,489,7,133422,115945
5974,487,7,133428,115955
5976,495,7,133436,115955
5979,500,7,133430,115951
5981,503,7,133435,115943
5984,503,7,133444,115947
5986,500,7,133437,115948
5989,504,7,133440,115946
5991,507,7,133426,115943
5993,504,7,133422,115945
5996,504,7,133438,115940
5998,503,7,133433,115942
6001,502,7,133431,115940
6003,500,7,133428,115940
6006,503,7,133412,115936
6008,509,7,133409,115929
6011,513,7,133397,115935
6013,512,7,133396,115934
6016,516,7,133392,115929
6019,519,7,133400,115931
6021,521,7,133391,115933
6024,518,7,133381,115925
6026,520,7,133380,115923
6029,520,7,133373,115921
6031,516,7,133374,115925
6033,511,7,133379,115928
6036,513,7,133384,115921
6038,513,7,133386,115918
6041,512,7,133384,115923
6043,514,7,133366,115922
6046,516,7,133377,115925
6048,516,7,133377,115926
6051,513,7,133397,115926
6053,518,7,133377,115931
6055,515,7,133384,115932
6059,514,7,133392,115925
6061,515,7,133392,115940
6064,515,7,133394,115932
6066,510,7,133399,115940
6069,511,7,133405,115938
6071,514,7,133403,115944
6073,513,7,133413,115942
6076,511,7,133407,115938
6078,513,7,133410,115933
6081,518,7,133413,115945
6083,521,7,133414,115945
6086,520,7,133417,115926
6088,520,7,133412,115942
6091,521,7,133415,115943
6093,522,7,133415,115938
6095,520,7,133420,115935
6098,516,7,133407,115934
6100,509,7,133405,115940
6104,514,7,133411,115938
6106,518,7,133416,115934
6109,518,7,133408,115933
6111,522,7,133405,115939
6113,531,7,133400,115934
6116,535,7,133402,115936
6118,534,7,133391,115936
6121,529,7,133401,115938
6123,519,7,133399,115937
6126,522,7,133397,115930
6128,528,7,133396,115930
6131,526,7,133392,115903
6133,522,7,133389,115914
6135,517,7,133382,115928
6138,513,7,133381,115923
6140,506,7,133393,115929
6144,511,7,133379,115921
6146,519,7,133378,115920
6149,520,7,133383,115929
6151,523,7,133382,115930
6153,531,7,133373,115919
6156,533,7,133375,115915
6158,530,7,133374,115915
6161,525,7,133379,115918
6163,515,7,133380,115918
6166,518,7,133378,115921
6168,520,7,133376,115921
6171,521,7,133376,115916
6173,524,8,133380,115921
6175,522,7,133395,115924
6178,518,7,133392,115942
6180,516,7,133397,115937
6183,518,7,133400,115930
6185,519,7,133404,115928
6189,520,7,133404,115941
6191,521,7,133410,115947
6193,519,7,133408,115947
6196,512,7,133429,115952
6198,508,7,133430,115941
6201,507,7,133443,115962
6203,511,7,133441,115943
6206,511,7,133444,115943
6208,506,7,133457,115955
6211,506,7,133457,115957
6213,510,7,133470,115956
6215,509,7,133472,115956
6218,504,7,133485,115970
6220,504,7,133497,115968
6223,506,7,133502,115975
6225,506,7,133502,115976
6228,507,7,133516,115994
6231,509,7,133536,115992
6233,506,7,133536,115995
6236,505,7,133555,115999
6238,502,7,133563,115999
6241,500,7,133582,116004
6243,501,7,133582,116008
6246,501,7,133600,116008
6248,500,7,133601,116022
6251,498,7,133601,116023
6253,499,7,133636,116029
6255,500,7,133639,116029
6258,499,7,133648,116038
6260,499,7,133648,116041
6263,501,7,133676,116047
6265,500,7,133683,116055
6268,498,7,133683,116054
6270,499,7,133702,116054
6273,500,7,133724,116054
6276,496,7,133724,116056
6278,497,7,133726,116066
6281,500,7,133739,116066
6283,498,7,133739,116077
6286,500,7,133763,116082
6288,503,7,133767,116082
6291,504,7,133785,116087
6293,503,7,133785,116092
6295,505,7,133781,116084
6298,504,7,133810,116084
6300,501,7,133825,116098
6303,497,7,133811,116108
6305,505,7,133811,116101
6308,505,7,133837,116105
6310,499,7,133849,116114
6312,501,7,133849,116113
6316,506,7,133853,116113
6318,507,7,133868,116122
6321,508,7,133852,116134
6323,509,7,133880,116134
6326,509,7,133864,116136
6328,516,7,133864,116130
6331,512,7,133862,116137
6333,507,7,133901,116137
6335,502,7,133867,116145
6338,506,7,133875,116139
6340,504,7,133913,116139
6343,504,7,133913,116142
6345,505,7,133914,116145
6348,509,7,133918,116145
6350,511,8,133926,116145
6352,508,7,133938,116156
6355,507,7,133938,116148
6358,510,7,133906,116152
6361,509,7,133937,116152
6363,506,7,133938,116154
6366,505,7,133938,116158
6368,507,8,133941,116158
6371,507,7,133941,116153
6373,504,8,133948,116154
6375,508,7,133953,116154
6378,516,7,133955,116164
6380,520,7,133959,116167
6383,522,7,133959,116163
6385,518,7,133959,116166
6388,518,7,133975,116166
6390,522,7,133975,116162
6392,526,8,133969,116162
6395,532,7,133976,116170
6397,534,7,133978,116180
6401,533,7,133978,116177
6403,525,7,133979,116175
6406,521,7,133986,116180
6408,520,7,133987,116182
6411,520,7,133997,116182
6413,521,7,134019,116182
6415,523,7,134019,116185
6418,520,7,134011,116179
6420,516,7,134011,116179
6423,518,8,134014,116193
6425,519,7,134027,116198
6428,518,7,134027,116188
6430,514,7,134046,116195
6432,503,7,134034,116195
6435,503,7,134034,116199
6437,506,7,134040,116197
6440,506,8,134062,116209
6443,504,7,134061,116205
6446,502,7,134076,116216
6448,499,7,134062,116208
6451,497,7,134082,116211
6453,491,7,134085,116225
6455,493,7,134102,116226
6458,496,7,134093,116234
6460,497,8,134108,116231
6463,497,7,134117,116240
6465,493,7,134130,116240
6468,494,7,134134,116244
6470,504,7,134130,116244
6472,503,7,134132,116255
6475,503,7,134138,116253
6477,502,7,134147,116252
6480,499,7,134163,116250
6482,497,7,134161,116261
6486,495,7,134162,116265
6488,494,7,134187,116262
6491,494,7,134185,116268
6493,492,7,134205,116270
6495,493,7,134199,116273
6498,501,7,134205,116274
6500,503,7,134204,116283
6503,506,7,134219,116284
6505,507,7,134221,116282
6508,505,7,134235,116291
6510,503,7,134230,116289
6512,503,7,134248,116293
6515,503,7,134253,116294
6517,503,7,134258,116293
6520,501,7,134262,116297
6522,503,7,134272,116308
6525,504,7,134282,116307
6528,505,7,134288,116305
6531,502,7,134308,116316
6533,506,7,134290,116315
6535,503,7,134307,116333
6538,503,7,134320,116323
6540,504,7,134330,116333
6543,505,7,134328,116334
6545,501,7,134344,116344
6548,502,7,134352,116343
6550,504,7,134358,116344
6552,504,7,134365,116341
6555,503,7,134364,116353
6557,505,7,134370,116357
6560,509,7,134383,116350
6562,513,7,134389,116360
6565,512,7,134400,116365
6567,508,7,134397,116367
6571,512,7,134420,116372
6573,518,7,134426,116372
6575,526,7,134435,116369
6578,553,7,134443,116382
6580,563,7,134437,116371
6583,573,7,134456,116375
6585,576,7,134463,116395
6588,575,7,134465,116401
6590,562,7,134474,116404
6592,557,7,134480,116419
6595,548,7,134484,116408
6597,535,7,134503,116412
6600,513,7,134509,116393
6602,501,7,134520,116425
6605,489,7,134524,116422
6607,479,7,134534,116424
6610,471,7,134538,116408
6612,466,7,134547,116403
6615,466,7,134560,116439
6618,466,7,134563,116444
6620,466,7,134571,116451
6623,471,7,134583,116436
6625,477,7,134595,116462
6628,483,7,134601,116465
6630,488,7,134603,116463
6632,491,7,134619,116464
6635,491,7,134626,116453
6637,489,7,134633,116473
6640,487,7,134633,116483
6642,482,7,134655,116477
6645,487,7,134657,116483
6647,497,7,134667,116488
6650,497,7,134667,116495
6652,496,7,134694,116501
6654,494,7,134704,116501
6658,490,7,134721,116507
6660,486,7,134724,116508
6663,488,7,134728,116525
6665,492,7,134740,116519
6668,495,7,134751,116524
6670,494,7,134773,116544
6672,495,7,134772,116544
6675,498,7,134793,116548
6677,496,7,134795,116541
6680,497,7,134815,116561
6682,502,7,134814,116549
6685,503,7,134827,116549
6687,500,7,134844,116558
6690,501,7,134844,116569
6692,506,7,134863,116575
6694,507,7,134865,116575
6697,503,7,134889,116588
6700,503,7,134901,116587
6703,512,7,134905,116596
6705,514,7,134921,116604
6708,516,7,134921,116618
6710,517,7,134935,116620
6712,517,7,134951,116620
6715,512,7,134966,116630
6717,508,7,134966,116627
6720,507,7,134989,116642
6722,509,7,134997,116631
6725,509,7,135013,116646
6727,504,7,135013,116648
6730,508,7,135019,116647
6732,511,7,135037,116652
6734,510,7,135037,116647
6737,513,7,135051,116660
6739,517,7,135066,116660
6743,518,7,135082,116665
6745,517,7,135082,116667
6748,514,7,135093,116678
6750,511,7,135104,116684
6752,506,7,135104,116690
6755,508,7,135127,116692
6757,512,7,135133,116705
6760,512,7,135152,116705
6762,513,7,135159,116705
6765,512,7,135177,116712
6767,519,7,135177,116717
6770,520,7,135186,116716
6772,518,7,135193,116719
6774,516,7,135208,116719
6777,518,7,135206,116731
6779,517,7,135214,116731
6782,514,7,135219,116738
6785,522,7,135219,116732
6788,521,7,135210,116734
6790,519,7,135193,116733
6792,517,7,135193,116718
6795,518,7,135160,116718
6797,517,7,135134,116710
6800,517,7,135088,116682
6802,519,7,135044,116682
6805,519,7,134969,116667
6807,529,7,134969,116615
6810,528,7,134900,116578
6812,526,7,134765,116578
6814,522,7,134668,116544
6817,519,7,134542,116475
6819,519,7,134485,116475
6822,517,7,134392,116444
6824,526,7,134392,116389
6828,523,7,134314,116360
6830,520,7,134179,116360
6832,514,7,134123,116341
6835,511,7,134123,116292
6837,519,7,134064,116277
6840,523,7,133972,116277
6842,521,7,133935,116254
6845,518,7,133935,116229
6847,519,7,133845,116229
6850,517,7,133811,116221
6852,515,7,133811,116177
6854,515,7,133752,116175
6857,512,7,133715,116175
6859,507,7,133715,116151
6862,501,7,133681,116138
6864,499,7,133660,116132
6867,503,7,133633,116132
6870,506,7,133598,116122
6872,507,7,133598,116104
6875,504,7,133570,116110
6877,499,7,133560,116110
6880,502,7,133548,116101
6882,502,7,133530,116104
6885,498,7,133530,116092
6887,498,7,133529,116090
6890,489,7,133510,116090
6892,488,7,133524,116086
6894,486,7,133524,116086
6897,485,7,133494,116088
6899,486,7,133496,116083
6902,488,7,133496,116084
6904,490,7,133494,116081
6907,491,7,133500,116081
6909,493,7,133501,116092
6912,496,7,133513,116091
6915,497,7,133516,116089
6917,492,7,133538,116093
6920,489,7,133538,116096
6922,488,7,133534,116100
6925,489,7,133556,116102
6927,488,7,133545,116108
6930,483,7,133577,116108
6932,482,7,133557,116115
6934,486,7,133584,116110
6937,488,7,133587,116123
6939,489,7,133599,116119
6942,489,7,133612,116127
6944,486,7,133615,116127
6947,491,7,133613,116131
6949,495,7,133621,116133
6951,495,7,133638,116135
6955,490,7,133650,116138
6957,492,7,133665,116143
6960,495,7,133666,116155
6962,497,7,133684,116155
6965,497,7,133694,116156
6967,495,7,133699,116160
6970,499,7,133714,116165
6972,504,7,133714,116167
6974,506,7,133712,116165
6977,509,7,133732,116168
6979,509,7,133741,116177
6982,507,7,133729,116180
6984,505,7,133739,116172
6987,503,7,133744,116174
6989,499,7,133755,116181
6991,502,7,133757,116179
6994,502,7,133755,116177
6996,507,7,133747,116181
7000,511,7,133754,116179
7002,513,7,133762,116181
7005,511,7,133773,116181
7007,510,7,133759,116184
7010,506,7,133762,116185
7012,505,7,133769,116182
7014,503,7,133777,116188
7017,509,7,133773,116191
7019,509,7,133776,116197
7022,509,7,133793,116190
7024,508,7,133795,116192
7027,505,7,133804,116188
7029,509,7,133800,116198
7031,507,7,133809,116202
7034,507,7,133822,116201
7036,507,7,133828,116209
7040,504,7,133830,116210
7042,500,7,133847,116217
7045,500,7,133865,116212
7047,504,7,133869,116218
7050,505,7,133876,116230
7052,505,7,133875,116230
7054,502,7,133882,116234
7057,505,7,133888,116230
7059,501,7,133902,116242
7062,502,7,133909,116237
7064,504,7,133907,116246
7067,504,7,133900,116237
7069,507,7,133908,116245
7071,510,7,133909,116240
7074,512,7,133908,116239
7076,510,7,133905,116241
7079,506,7,133909,116244
7081,506,7,133905,116237
7085,507,7,133901,116244
7087,509,7,133908,116239
7090,509,7,133901,116243
7092,505,7,133898,116220
7094,507,7,133895,116219
7097,506,7,133887,116219
7099,498,7,133886,116238
7102,497,7,133883,116234
7104,501,7,133874,116235
7107,501,7,133862,116205
7109,505,7,133864,116226
7111,509,7,133856,116221
7114,511,7,133843,116223
7116,509,7,133835,116221
7119,505,7,133826,116209
7121,499,7,133833,116213
7124,504,7,133819,116206
7127,512,7,133807,116204
7130,510,7,133805,116181
7132,507,7,133799,116181
7134,503,7,133790,116197
7137,500,7,133785,116191
7139,494,7,133783,116195
7142,498,7,133778,116188
7144,506,7,133766,116180
7147,507,7,133763,116182
7149,510,7,133757,116181
7151,515,7,133757,116176
7154,518,7,133750,116182
7156,516,7,133746,116176
7159,512,7,133738,116182
7161,509,7,133736,116171
7164,510,7,133736,116167
7166,512,7,133736,116170
7170,507,7,133735,116170
7172,505,7,133742,116168
7174,508,7,133745,116168
7177,511,7,133742,116167
7179,507,7,133743,116166
7182,512,7,133747,116178
7184,513,7,133753,116172
7187,515,7,133753,116193
7189,516,7,133755,116183
7191,514,7,133757,116183
7194,510,7,133763,116185
7196,503,7,133778,116181
7199,508,7,133773,116179
7201,510,7,133773,116187
7204,511,7,133786,116187
7206,511,7,133794,116187
7209,510,7,133809,116193
7212,502,7,133813,116201
7214,501,7,133813,116203
7217,505,7,133832,116201
7219,505,7,133836,116201
7222,501,7,133844,116218
7224,504,7,133844,116217
7227,506,7,133857,116222
7229,507,7,133871,116222
7231,506,7,133893,116227
7234,501,7,133896,116236
7236,502,7,133896,116238
7239,504,7,133911,116254
7241,503,7,133931,116256
7244,504,7,133931,116254
7246,508,7,133951,116254
7249,509,7,133975,116256
7251,507,7,133975,116263
7254,506,8,133961,116272
7257,505,7,133987,116281
7259,500,7,133987,116279
7262,500,7,134013,116286
7264,501,7,134033,116286
7267,500,7,134041,116292
7269,500,7,134041,116302
7271,502,7,134054,116310
7274,504,7,134082,116313
7276,503,7,134091,116313
7279,498,7,134098,116315
7281,500,7,134098,116319
7284,506,7,134103,116323
7286,509,7,134134,116323
7289,508,7,134140,116334
7291,504,7,134140,116338
7293,505,7,134143,116346
7297,504,7,134172,116346
7299,501,7,134193,116344
7302,498,7,134193,116351
7304,499,7,134196,116366
7307,499,7,134218,116373
7309,497,7,134223,116373
7311,494,7,134236,116366
7314,495,7,134236,116373
7316,496,7,134205,116381
7319,500,7,134222,116381
7321,503,7,134272,116391
7324,503,7,134285,116391
7326,499,7,134285,116400
7329,501,7,134280,116403
7331,502,7,134266,116403
7333,501,7,134307,116406
7336,498,7,134307,116405
7339,496,7,134305,116406
7342,492,7,134301,116411
7344,491,7,134326,116416
7347,494,7,134335,116416
7349,499,7,134348,116421
7351,505,7,134348,116424
7354,500,7,134347,116429
7356,498,7,134351,116429
7359,501,7,134381,116441
7361,504,7,134384,116438
7364,500,7,134384,116448
7366,498,7,134387,116441
7369,500,7,134389,116441
7371,503,7,134410,116441
7373,505,7,134410,116448
7376,501,7,134405,116455
7378,499,7,134414,116452
7382,499,7,134423,116454
7384,500,7,134426,116464
7387,501,7,134432,116464
7389,502,7,134439,116464
7391,506,7,134441,116466
7394,506,7,134438,116465
7396,499,7,134452,116474
7399,492,7,134462,116468
7401,490,7,134460,116468
7404,494,7,134456,116474
7406,496,7,134454,116475
7409,496,7,134470,116479
7411,495,7,134473,116476
7413,492,7,134499,116482
7416,489,7,134499,116486
7418,489,7,134487,116482
7421,493,7,134502,116490
7424,493,7,134502,116491
7427,491,7,134506,116485
7429,495,7,134513,116488
7431,495,7,134515,116490
7434,493,7,134511,116492
7436,489,7,134526,116496
7439,486,7,134531,116500
7441,482,7,134538,116501
7444,486,7,134532,116498
7446,486,7,134541,116505
7449,487,7,134553,116513
7451,490,7,134548,116514
7453,492,7,134552,116507
7456,497,7,134555,116513
7458,497,7,134554,116511
7461,495,7,134549,116519
7463,493,7,134565,116521
7467,490,7,134575,116521
7469,495,7,134576,116523
7471,495,7,134583,116532
7474,496,7,134586,116532
7476,497,7,134587,116523
7479,495,7,134578,116536
7481,492,7,134603,116539
7484,492,7,134593,116540
7486,495,7,134608,116540
7489,496,7,134607,116543
7491,495,7,134620,116541
7493,493,7,134613,116547
7496,496,7,134629,116550
7498,496,7,134636,116548
7501,495,7,134627,116555
7503,497,7,134636,116549
7506,505,7,134640,116560
7508,511,7,134646,116558
7511,517,7,134664,116561
7514,532,7,134665,116563
7516,553,7,134672,116565
7519,566,7,134670,116561
7521,576,7,134669,116579
7524,581,7,134675,116573
7526,578,7,134685,116575
7529,572,7,134696,116584
7531,565,7,134704,116584
7533,550,7,134712,116590
7536,531,7,134715,116596
7538,506,7,134722,116599
7541,496,7,134734,116599
7543,490,7,134738,116600
7546,482,7,134747,116604
7548,481,7,134754,116610
7550,484,7,134778,116614
7554,487,7,134780,116619
7556,488,7,134795,116627
7559,488,7,134793,116630
7561,490,7,134807,116634
7564,492,7,134822,116638
7566,493,7,134829,116647
7569,492,7,134845,116646
7571,490,7,134851,116648
7573,487,7,134861,116648
7576,483,7,134878,116656
7578,477,7,134890,116677
7581,478,7,134901,116684
7583,483,7,134910,116685
7586,485,7,134928,116664
7588,488,7,134943,116698
7590,493,7,134949,116699
7593,497,7,134971,116703
7596,497,7,134984,116705
7599,494,7,134994,116713
7601,487,7,135012,116727
7604,492,7,135011,116731
7606,498,7,135033,116731
7609,502,7,135046,116719
7611,504,7,135063,116720
7613,503,7,135072,116753
7616,497,7,135089,116753
7618,490,7,135104,116762
7621,490,7,135119,116753
7623,494,7,135131,116766
7626,495,7,135139,116762
7628,494,7,135156,116785
7630,492,7,135169,116782
7633,495,7,135174,116787
7635,498,7,135208,116790
7639,498,7,135206,116802
7641,498,7,135219,116804
7644,497,7,135234,116804
7646,493,7,135260,116826
7649,498,7,135264,116827
7651,506,7,135271,116824
7653,510,7,135286,116843
7656,511,7,135310,116832
7658,509,7,135309,116844
7661,508,7,135326,116866
7663,510,7,135337,116852
7666,513,7,135352,116852
7668,514,7,135372,116875
7670,515,7,135372,116885
7673,516,7,135384,116892
7675,513,7,135393,116880
7678,509,7,135421,116885
7681,507,7,135420,116892
7684,505,8,135432,116892
7686,509,7,135450,116900
7689,509,7,135459,116900
7691,513,7,135459,116903
7693,516,7,135459,116909
7696,515,7,135480,116924
7698,514,7,135487,116924
7701,516,7,135510,116931
7703,516,7,135510,116929
7706,513,7,135504,116937
7708,512,7,135523,116948
7710,510,7,135523,116944
7713,509,7,135526,116938
7715,507,7,135523,116938
7718,507,7,135535,116939
7720,507,7,135535,116936
7724,510,7,135529,116928
7726,513,7,135492,116928
7729,516,7,135481,116919
7731,514,7,135442,116901
7733,512,8,135400,116901
7736,516,7,135354,116854
7738,521,7,135354,116829
7741,527,7,135213,116806
7743,528,7,135129,116806
7746,527,7,135042,116728
7748,527,7,135042,116693
7750,528,7,134940,116655
7753,529,7,134730,116620
7755,525,7,134730,116583
7758,526,7,134542,116552
7760,528,7,134466,116552
7763,526,7,134398,116496
7766,523,7,134398,116479
7769,524,7,134341,116453
7771,525,7,134216,116453
7773,525,7,134185,116442
7776,522,7,134185,116398
7778,519,7,134139,116377
7781,518,7,134031,116377
7783,517,7,134015,116371
7786,514,7,133978,116356
7788,512,7,133978,116330
7790,514,7,133950,116315
7793,514,7,133863,116304
7795,506,7,133863,116290
7798,507,7,133843,116290
7800,509,7,133818,116286
7803,511,7,133818,116268
7805,513,7,133783,116268
7809,511,7,133765,116269
7811,510,7,133765,116258
7813,516,7,133759,116246
7816,518,7,133728,116246
7818,516,7,133741,116246
7821,507,7,133741,116248
7823,512,7,133729,116245
7826,514,7,133711,116245
7828,507,7,133711,116250
7830,508,7,133722,116241
7833,509,7,133716,116241
7835,507,7,133716,116245
7838,504,7,133716,116246
7840,505,7,133710,116249
7843,503,7,133709,116249
7845,500,7,133733,116239
7848,494,7,133733,116247
7851,495,7,133741,116247
7853,497,7,133753,116250
7856,499,7,133753,116255
7858,504,7,133768,116265
7861,506,7,133776,116265
7863,505,7,133786,116266
7866,502,7,133786,116272
7868,507,7,133798,116282
7870,510,7,133815,116282
7873,510,7,133815,116289
7875,506,7,133833,116289
7878,507,7,133871,116298
7880,507,7,133854,116313
7883,508,7,133854,116313
7885,512,7,133901,116316
7888,512,7,133882,116316
7890,514,7,133909,116319
7892,517,7,133909,116326
7896,517,7,133927,116326
7898,519,7,133936,116335
7901,520,7,133963,116339
7903,519,7,133969,116344
7906,518,7,133964,116345
7908,515,7,133988,116349
7910,514,7,133995,116351
7913,514,7,133985,116359
7915,514,7,133998,116352
7918,514,7,134002,116363
7920,514,7,134013,116363
7923,512,7,134024,116362
7925,511,7,134024,116366
7928,510,7,134028,116369
7930,514,7,134032,116373
7932,518,7,134028,116372
7936,517,7,134024,116369
7938,517,7,134030,116361
7941,513,7,134040,116368
7943,520,7,134039,116370
7946,517,7,134040,116370
7948,517,7,134047,116376
7950,521,7,134054,116375
7953,523,7,134060,116380
7955,521,7,134071,116380
7958,520,7,134058,116385
7960,520,7,134072,116381
7963,519,7,134087,116389
7965,519,7,134092,116391
7968,521,7,134090,116388
7970,522,7,134099,116401
7972,522,7,134121,116404
7975,519,7,134125,116399
7977,520,7,134134,116404
7981,523,7,134119,116408
7983,527,7,134133,116406
7986,531,7,134143,116412
7988,531,7,134159,116421
7990,528,7,134165,116421
7993,523,7,134171,116422
7995,523,7,134179,116425
7998,522,7,134184,116432
8000,522,7,134196,116437
8003,527,7,134187,116434
8005,528,7,134187,116430
8008,526,7,134193,116438
8010,521,7,134198,116427
8012,522,7,134201,116436
8015,522,7,134198,116436
8017,520,7,134214,116440
8020,521,7,134197,116436
8023,522,7,134196,116440
8026,520,7,134198,116437
8028,515,7,134195,116441
8030,517,7,134196,116435
8033,520,7,134199,116436
8035,520,7,134196,116434
8038,519,7,134184,116432
8040,521,7,134186,116430
8043,522,7,134187,116427
8045,524,7,134191,116435
8048,523,7,134179,116430
8050,521,7,134171,116420
8052,524,7,134162,116416
8055,522,7,134165,116431
8057,517,7,134157,116414
8060,515,7,134161,116410
8062,513,7,134158,116407
8066,512,7,134149,116427
8068,506,7,134148,116418
8070,509,7,134157,116423
8073,513,7,134146,116418
8075,514,7,134145,116416
8078,517,7,134140,116396
8080,520,7,134145,116418
8083,520,7,134139,116414
8085,517,7,134136,116417
8088,514,7,134133,116392
8090,519,7,134137,116416
8092,517,7,134132,116417
8095,515,7,134133,116419
8097,510,7,134135,116418
8100,509,7,134127,116401
8102,511,7,134140,116424
8105,515,7,134135,116402
8108,523,7,134134,116417
8110,522,7,134145,116426
8113,520,7,134147,116412
8115,517,7,134153,116426
8118,515,7,134150,116425
8120,510,7,134160,116433
8123,515,7,134158,116426
8125,521,7,134160,116435
8128,524,7,134160,116431
8130,528,7,134168,116441
8132,527,7,134176,116440
8135,524,7,134186,116434
8137,519,7,134192,116442
8140,516,7,134200,116456
8142,519,7,134213,116441
8145,522,7,134218,116441
8147,523,7,134233,116454
8150,524,7,134233,116459
8153,525,7,134235,116471
8155,523,7,134254,116477
8158,520,7,134270,116471
8160,517,7,134277,116469
8163,516,7,134282,116469
8165,521,8,134300,116491
8168,521,7,134312,116488
8170,521,7,134320,116496
8172,521,7,134331,116515
8175,522,7,134354,116498
8177,524,7,134356,116521
8180,524,7,134379,116521
8182,522,7,134394,116523
8185,521,7,134394,116523
8187,522,7,134406,116529
8189,523,7,134406,116536
8193,526,7,134442,116546
8195,527,7,134447,116546
8198,526,7,134466,116555
8200,523,7,134472,116560
8203,526,7,134472,116566
8205,529,7,134506,116574
8208,529,7,134511,116574
8210,524,7,134527,116582
8212,525,7,134527,116582
8215,526,7,134551,116595
8217,526,7,134561,116595
8220,523,7,134571,116603
8222,519,7,134579,116593
8225,520,7,134591,116593
8227,524,7,134612,116611
8229,524,7,134612,116620
8232,525,7,134633,116620
8235,526,7,134636,116620
8238,524,7,134653,116626
8240,519,7,134653,116631
8243,523,7,134671,116632
8245,525,7,134677,116632
8248,524,7,134697,116637
8250,521,7,134708,116648
8252,521,7,134713,116648
8255,522,7,134717,116653
8257,525,7,134717,116663
8260,526,7,134742,116674
8262,522,8,134752,116671
8265,519,7,134752,116677
8267,519,7,134758,116677
8269,518,7,134784,116679
8272,514,7,134784,116681
8274,514,7,134796,116687
8278,517,7,134807,116687
8280,514,8,134807,116693
8283,516,7,134826,116704
8285,519,7,134844,116704
8288,519,7,134847,116710
8290,519,7,134847,116714
8292,522,7,134830,116722
8295,521,7,134876,116722
8297,517,7,134873,116718
8300,514,7,134884,116724
8302,522,7,134884,116734
8305,520,7,134895,116729
8307,518,7,134906,116729
8309,514,7,134922,116742
8312,515,7,134922,116740
8314,519,7,134897,116749
8317,519,7,134931,116749
8320,515,7,134946,116746
8323,512,7,134946,116754
8325,513,7,134948,116754
8328,514,7,134961,116757
8330,514,7,134961,116767
8332,516,7,134961,116766
8335,515,8,134976,116766
8337,511,7,134979,116768
8340,507,7,134979,116776
8342,507,7,134993,116776
8345,516,7,134994,116776
8347,522,7,135017,116780
8349,526,7,135017,116782
8352,523,7,135009,116786
8354,523,7,135024,116786
8357,528,7,135038,116788
8359,530,7,135033,116794
8363,528,7,135033,116786
8365,530,7,135038,116796
8368,523,7,135037,116796
8370,523,7,135072,116800
8372,524,7,135072,116811
8375,519,7,135062,116810
8377,516,7,135064,116811
8380,517,7,135073,116812
8382,518,7,135074,116813
8385,519,7,135080,116813
8387,520,7,135086,116820
8389,523,7,135091,116820
8392,523,7,135103,116814
8394,516,7,135106,116814
8397,513,7,135102,116826
8399,515,7,135122,116826
8402,516,7,135112,116824
8404,510,7,135137,116824
8408,511,7,135114,116835
8410,511,7,135125,116836
8412,511,7,135135,116832
8415,509,7,135157,116835
8417,506,7,135148,116835
8420,505,7,135146,116847
8422,508,7,135154,116839
8425,509,7,135159,116842
8427,503,7,135175,116849
8429,505,7,135172,116851
8432,507,7,135177,116862
8434,509,7,135182,116857
8437,509,7,135186,116855
8439,505,7,135198,116866
8442,506,7,135200,116865
8444,514,7,135210,116865
8448,517,7,135212,116869
8450,517,7,135217,116862
8452,516,7,135215,116868
8455,518,7,135216,116874
8457,516,7,135229,116877
8460,514,7,135231,116882
8462,512,7,135236,116879
8465,510,7,135242,116881
8467,517,7,135261,116888
8469,524,7,135262,116889
8472,533,7,135255,116894
8474,554,7,135270,116886
8477,569,7,135257,116900
8479,580,7,135281,116902
8482,587,7,135289,116900
8484,588,7,135292,116908
8487,585,7,135290,116908
8489,580,7,135301,116906
8492,567,7,135310,116911
8495,549,7,135311,116921
8497,526,7,135320,116921
8500,515,7,135317,116912
8502,506,7,135329,116922
8505,495,7,135336,116917
8507,490,7,135342,116924
8509,491,7,135348,116935
8512,495,7,135348,116932
8514,496,7,135367,116931
8517,497,7,135362,116942
8519,499,7,135380,116942
8522,500,7,135390,116953
8524,502,7,135386,116955
8527,502,7,135408,116946
8529,499,7,135404,116960
8531,502,7,135420,116955
8535,500,7,135430,116966
8537,496,7,135435,116963
8540,495,7,135444,116963
8542,494,7,135456,116968
8545,492,7,135460,116987
8547,487,7,135465,116984
8549,489,7,135487,116992
8552,493,7,135498,116993
8554,494,7,135512,116991
8557,497,7,135510,116995
8559,500,7,135531,117015
8562,502,7,135531,117008
8564,499,7,135544,117019
8567,497,7,135555,117002
8569,502,7,135569,117006
8571,501,7,135591,117038
8574,500,7,135601,117038
8577,496,7,135604,117041
8580,496,7,135612,117050
8582,500,7,135637,117052
8585,502,7,135642,117030
8587,500,7,135649,117060
8589,498,7,135665,117065
8592,495,7,135674,117042
8594,494,7,135681,117076
8597,494,7,135689,117082
8599,492,7,135717,117091
8602,498,7,135722,117090
8604,510,7,135727,117097
8607,510,7,135740,117090
8609,508,7,135751,117092
8611,505,7,135755,117101
8614,504,7,135771,117117
8616,499,7,135790,117120
8620,504,7,135802,117114
8622,512,7,135815,117123
8625,513,8,135821,117134
8627,517,7,135837,117142
8629,523,7,135837,117137
8632,528,7,135852,117143
8634,527,7,135856,117143
8637,522,7,135869,117156
8639,521,7,135880,117159
8642,525,7,135880,117157
8644,529,7,135897,117159
8647,525,7,135909,117169
8649,522,7,135929,117176
8651,525,7,135925,117176
8654,525,7,135945,117180
8656,526,7,135943,117181
8659,531,7,135963,117190
8662,533,7,135965,117196
8665,533,7,135965,117216
8667,534,7,135984,117217
8669,532,7,135994,117217
8672,529,7,136003,117208
8674,522,7,135999,117212
8677,527,7,135994,117204
8679,529,7,135994,117196
8682,530,7,136000,117211
8684,531,7,135976,117211
8687,530,7,135966,117204
8689,524,7,135951,117182
8691,523,7,135951,117169
8694,527,7,135878,117155
8696,525,7,135829,117132
8699,523,7,135778,117109
8701,526,7,135708,117109
8705,528,7,135634,117086
8707,525,7,135634,117011
8709,524,7,135525,116968
8712,528,7,135333,116931
8714,526,7,135333,116893
8717,526,7,135107,116849
8719,528,7,135014,116849
8722,528,7,134924,116814
8724,524,7,134924,116747
8727,524,7,134836,116720
8729,527,7,134684,116702
8731,524,7,134684,116681
8734,525,7,134592,116660
8736,528,7,134540,116646
8739,527,7,134540,116631
8741,528,7,134458,116631
8744,527,8,134421,116614
8747,522,8,134421,116581
8749,520,7,134392,116572
8752,522,7,134326,116565
8754,521,7,134294,116565
8757,515,7,134276,116531
8759,516,7,134276,116525
8762,515,7,134247,116520
8764,514,8,134206,116520
8767,511,7,134189,116510
8769,506,7,134189,116503
8771,506,7,134162,116494
8774,504,7,134155,116494
8776,500,7,134150,116488
8779,493,7,134150,116485
8781,498,7,134129,116489
8784,500,7,134119,116489
8786,496,7,134119,116489
8788,496,7,134128,116477
8792,497,7,134119,116480
8794,492,7,134119,116484
8797,494,7,134087,116484
8799,497,7,134133,116478
8802,493,7,134138,116490
8804,493,7,134138,116493
8807,500,7,134150,116492
8809,502,7,134130,116492
8811,499,7,134130,116502
8814,492,7,134166,116502
8816,492,7,134178,116505
8819,496,7,134190,116514
8821,500,7,134191,116518
8824,503,7,134209,116518
8826,505,7,134240,116519
8828,512,7,134240,116537
8832,510,7,134250,116542
8834,508,7,134260,116542
8837,510,7,134287,116544
8839,511,7,134295,116554
8842,506,7,134295,116563
8844,505,7,134317,116559
8847,506,7,134327,116559
8849,509,7,134358,116569
8851,511,7,134358,116585
8854,506,7,134363,116582
8856,505,7,134378,116592
8859,505,7,134387,116602
8861,508,7,134398,116603
8864,509,7,134414,116603
8866,511,7,134430,116607
8868,515,7,134433,116616
8871,509,7,134465,116622
8873,506,7,134462,116622
8877,507,7,134468,116627
8879,510,7,134476,116632
8882,511,7,134507,116630
8884,507,7,134519,116636
8887,506,7,134522,116630
8889,503,7,134517,116640
8891,501,7,134516,116643
8894,500,7,134539,116642
8896,498,7,134540,116648
8899,496,7,134555,116647
8901,493,7,134550,116656
8904,496,7,134550,116656
8906,501,7,134551,116652
8908,507,7,134565,116654
8911,510,7,134571,116665
8913,509,7,134582,116668
8916,505,7,134588,116671
8919,500,7,134597,116663
8922,500,7,134601,116668
8924,509,7,134597,116680
8927,508,7,134614,116680
8929,507,7,134618,116684
8931,507,7,134634,116687
8934,503,7,134653,116693
8936,503,7,134660,116705
8939,501,7,134672,116709
8941,500,7,134679,116713
8944,497,7,134697,116716
8946,502,7,134704,116716
8948,504,7,134713,116713
8951,503,7,134714,116725
8953,504,7,134721,116727
8956,509,7,134724,116731
8958,514,7,134726,116726
8962,516,7,134744,116739
8964,516,7,134735,116731
8967,514,7,134750,116731
8969,511,7,134739,116733
8971,506,7,134745,116728
8974,503,7,134744,116725
8976,505,7,134736,116732
8979,505,7,134735,116726
8981,501,7,134734,116725
8984,502,7,134717,116724
8986,505,7,134716,116725
8988,505,7,134718,116719
8991,504,7,134715,116725
8993,505,7,134711,116718
8996,509,7,134697,116714
8998,512,7,134695,116714
9001,511,7,134682,116702
9004,511,7,134680,116700
9007,511,7,134675,116709
9009,512,7,134656,116695
9011,511,7,134670,116697
9014,513,7,134648,116693
9016,510,7,134643,116701
9019,509,7,134636,116688
9021,509,7,134632,116689
9024,508,7,134623,116686
9026,501,7,134626,116688
9028,502,7,134623,116685
9031,505,7,134612,116679
9033,505,7,134617,116673
9036,504,7,134599,116684
9038,498,7,134604,116677
9041,498,7,134596,116671
9043,500,7,134591,116675
9047,499,7,134597,116663
9049,499,7,134585,116681
9051,498,7,134585,116675
9054,496,7,134589,116677
9056,493,7,134585,116679
9059,491,7,134587,116676
9061,493,7,134596,116680
9064,496,7,134596,116659
9066,506,7,134593,116677
9068,505,7,134607,116681
9071,503,7,134595,116656
9073,500,7,134597,116685
9076,497,7,134605,116690
9078,494,7,134604,116694
9081,499,7,134615,116685
9083,507,7,134618,116694
9086,512,7,134632,116673
9089,514,7,134636,116681
9091,515,7,134638,116697
9094,513,7,134638,116703
9096,505,7,134660,116705
9099,509,7,134671,116705
9101,516,7,134670,116712
9104,516,7,134676,116708
9106,518,7,134695,116722
9108,521,7,134705,116716
9111,521,7,134716,116727
9113,520,7,134724,116730
9116,518,7,134734,116739
9118,510,7,134741,116738
9121,515,7,134741,116743
9123,521,7,134771,116747
9126,518,7,134784,116751
9128,516,7,134810,116760
9131,519,7,134806,116760
9134,520,7,134824,116775
9136,520,7,134839,116774
9139,527,7,134847,116776
9141,529,7,134858,116781
9144,530,7,134858,116808
9146,530,7,134881,116797
9148,528,7,134891,116797
9151,523,7,134914,116804
9153,514,7,134921,116804
9156,518,7,134936,116816
9158,520,7,134947,116812
9161,521,7,134947,116836
9163,523,7,134982,116839
9166,522,7,134991,116839
9168,515,7,135002,116844
9170,514,7,135002,116847
9174,517,7,135031,116855
9176,517,7,135044,116855
9179,513,7,135063,116869
9181,513,7,135069,116864
9184,514,7,135069,116865
9186,514,7,135089,116875
9188,513,7,135106,116875
9191,515,7,135117,116885
9193,514,7,135117,116890
9196,514,7,135143,116898
9198,512,7,135154,116898
9201,508,7,135168,116897
9203,510,7,135175,116905
9206,509,7,135181,116905
9208,512,7,135196,116910
9210,514,7,135196,116915
9213,512,7,135213,116921
9216,511,7,135224,116921
9219,512,7,135230,116923
9221,509,7,135230,116931
9224,509,7,135243,116933
9226,512,7,135264,116940
9228,509,7,135264,116947
9231,511,7,135281,116948
9233,514,7,135285,116948
9236,513,7,135297,116956
9238,507,7,135297,116964
9241,511,7,135302,116965
9243,515,7,135319,116965
9246,515,7,135335,116972
9248,514,7,135335,116971
9250,514,7,135350,116975
9253,514,7,135343,116986
9255,507,7,135343,116989
9259,507,7,135373,116989
9261,509,7,135385,116984
9264,507,7,135366,116995
9266,508,7,135366,116998
9268,511,7,135406,117006
9271,512,7,135410,117006
9273,510,7,135419,117005
9276,505,7,135419,117012
9278,505,7,135435,117009
9281,503,7,135412,117009
9283,500,7,135453,117011
9286,494,7,135453,117028
9288,492,8,135431,117028
9290,489,7,135474,117035
9293,485,7,135474,117029
9295,487,7,135473,117030
9298,489,7,135480,117030
9300,490,7,135489,117033
9304,484,7,135489,117040
9306,486,7,135497,117047
9308,488,7,135505,117047
9311,488,7,135505,117049
9313,486,7,135519,117050
9316,485,7,135523,117056
9318,481,7,135523,117061
9321,484,7,135533,117061
9323,488,7,135533,117062
9326,489,7,135539,117062
9328,495,7,135547,117068
9330,502,7,135547,117063
9333,498,7,135549,117068
9335,497,7,135552,117075
9338,498,7,135554,117074
9340,500,7,135562,117075
9344,502,7,135568,117075
9346,504,7,135577,117083
9348,508,7,135577,117090
9351,502,7,135584,117081
9353,499,7,135593,117081
9356,501,7,135622,117095
9358,503,7,135604,117098
9361,501,7,135604,117093
9363,500,7,135610,117098
9366,502,7,135615,117098
9368,505,7,135626,117101
9370,508,7,135625,117098
9373,508,7,135627,117100
9375,504,7,135651,117106
9378,501,7,135651,117110
9380,497,7,135651,117111
9383,494,7,135654,117108
9385,499,7,135667,117115
9388,499,7,135663,117113
9391,497,7,135680,117121
9393,497,7,135674,117116
9396,495,7,135679,117116
9398,495,7,135685,117119
9401,494,7,135705,117123
9403,494,7,135700,117122
9406,493,7,135705,117132
9408,489,7,135714,117136
9410,495,7,135726,117133
9413,500,7,135712,117137
9415,502,7,135741,117140
9418,501,7,135744,117142
9420,498,7,135747,117148
9423,501,7,135752,117156
9425,505,7,135745,117152
9427,506,7,135749,117160
9431,509,7,135768,117161
9433,514,7,135776,117162
9436,521,7,135791,117160
9438,544,7,135781,117168
9441,553,7,135787,117173
9443,565,7,135803,117176
9446,573,7,135819,117180
9448,574,7,135824,117182
9450,574,7,135826,117184
9453,565,7,135829,117190
9455,555,7,135833,117187
9458,544,7,135846,117197
9460,533,7,135852,117184
9463,515,7,135856,117193
9465,487,7,135866,117197
9467,480,7,135871,117204
9470,481,7,135883,117196
9473,482,7,135900,117213
9476,484,7,135895,117211
9478,485,7,135908,117209
9481,486,7,135906,117218
9483,491,7,135914,117217
9486,492,7,135927,117217
9488,491,7,135934,117228
9490,494,7,135936,117232
9493,493,7,135950,117224
9495,491,7,135962,117245
9498,492,7,135970,117240
9500,492,7,135973,117238
9503,491,7,135978,117247
9505,488,7,135995,117249
9507,488,7,136008,117263
9510,493,7,136013,117259
9512,494,7,136019,117261
9516,496,7,136035,117261
9518,497,7,136042,117277
9521,499,7,136054,117268
9523,498,7,136061,117286
9526,495,7,136063,117281
9528,500,7,136076,117285
9530,496,7,136087,117288
9533,495,7,136110,117288
9535,499,7,136111,117306
9538,500,7,136120,117303
9540,494,7,136129,117312
9543,498,7,136146,117317
9545,503,7,136166,117320
9547,505,7,136169,117305
9550,508,7,136176,117305
9552,502,7,136186,117335
9555,500,7,136197,117338
9558,501,7,136212,117344
9561,501,7,136215,117317
9563,502,7,136230,117352
9566,505,7,136238,117341
9568,507,7,136242,117358
9570,504,7,136264,117362
9573,499,7,136267,117341
9575,501,7,136284,117375
9578,501,7,136289,117372
9580,504,7,136296,117376
9583,504,7,136302,117363
9585,506,7,136327,117382
9587,508,7,136332,117386
9590,509,7,136347,117392
9592,508,7,136340,117389
9595,505,7,136355,117400
9597,498,7,136374,117401
9601,501,7,136374,117402
9603,507,7,136387,117407
9606,511,7,136399,117407
9608,513,7,136407,117411
9610,513,7,136405,117418
9613,511,7,136419,117424
9615,504,7,136429,117422
9618,511,7,136442,117430
9620,514,7,136444,117429
9623,516,7,136444,117448
9625,517,7,136458,117450
9627,516,7,136472,117450
9630,511,7,136487,117448
9632,508,7,136489,117442
9635,507,7,136496,117462
9637,511,7,136491,117454
9640,512,7,136491,117459
9643,510,7,136489,117447
9646,514,7,136489,117447
9648,520,7,136477,117442
9650,520,7,136457,117442
9653,516,7,136441,117431
9655,515,7,136408,117411
9658,524,7,136366,117394
9660,527,7,136366,117365
9663,529,7,136307,117337
9665,530,7,136194,117321
9667,525,7,136194,117284
9670,523,7,136023,117247
9672,524,7,135921,117247
9675,523,7,135817,117172
9677,520,7,135817,117122
9680,524,7,135706,117078
9682,527,7,135459,117078
9686,527,7,135345,117030
9688,523,7,135253,116965
9690,524,7,135253,116926
9693,524,7,135079,116893
9695,524,7,135005,116893
9698,521,7,134950,116876
9700,518,7,134950,116835
9703,521,7,134896,116815
9705,521,7,134807,116801
9707,516,7,134807,116786
9710,517,7,134737,116772
9712,519,7,134703,116772
9715,519,7,134703,116746
9717,517,7,134657,116746
9720,513,7,134618,116735
9722,510,7,134618,116720
9725,507,7,134597,116707
9728,503,7,134541,116707
9730,499,7,134528,116692
9733,499,7,134517,116691
9735,496,7,134500,116691
9738,491,7,134485,116689
9740,497,7,134485,116671
9743,495,7,134488,116672
9745,491,8,134465,116678
9747,488,7,134465,116674
9750,488,7,134463,116674
9752,486,7,134461,116669
9755,485,7,134461,116667
9757,487,7,134461,116667
9760,487,7,134441,116671
9762,488,7,134441,116666
9765,485,7,134438,116677
9767,484,7,134444,116677
9769,481,7,134494,116671
9773,479,7,134494,116683
9775,477,7,134497,116688
9778,476,7,134514,116688
9780,474,7,134525,116693
9783,472,7,134501,116693
9785,484,7,134501,116705
9787,484,7,134544,116705
9790,484,7,134563,116715
9792,479,7,134563,116720
9795,483,7,134590,116720
9797,487,7,134610,116721
9800,493,7,134610,116733
9802,495,7,134628,116733
9805,495,7,134648,116740
9807,497,7,134648,116751
9809,499,7,134648,116751
9812,499,7,134685,116751
9815,496,7,134685,116763
9818,492,7,134704,116773
9820,493,7,134716,116773
9823,502,7,134732,116773
9825,507,7,134763,116780
9827,512,7,134763,116791
9830,510,7,134763,116808
9832,510,7,134779,116808
9835,515,7,134819,116805
9837,516,7,134817,116814
9840,514,7,134817,116809
9842,516,7,134841,116821
9845,510,7,134838,116821
9847,511,7,134876,116822
9849,513,7,134876,116831
9852,507,7,134870,116833
9854,505,7,134883,116834
9858,506,7,134882,116835
9860,507,7,134890,116835
9863,511,7,134900,116835
9865,512,7,134898,116844
9867,512,7,134913,116845
9870,509,7,134918,116851
9872,504,7,134943,116854
9875,502,7,134945,116859
9877,500,7,134948,116857
9880,499,7,134952,116864
9882,496,7,134959,116863
9885,492,7,134986,116863
9887,493,7,134982,116878
9889,498,7,134990,116877
9892,501,7,135006,116884
9894,502,7,135014,116884
9897,500,7,135028,116889
9900,499,7,135046,116894
9903,498,7,135055,116908
9905,496,7,135055,116905
9907,496,7,135068,116907
9910,496,7,135085,116910
9912,497,7,135096,116919
9915,497,7,135100,116918
9917,499,7,135102,116922
9920,498,7,135112,116929
9922,498,7,135120,116930
9925,498,7,135129,116923
9927,498,7,135128,116929
9929,497,7,135131,116931
9932,497,7,135131,116933
9934,495,7,135135,116939
9937,492,7,135130,116934
9939,496,7,135128,116931
9943,495,7,135131,116930
9945,502,7,135129,116926
9947,502,7,135133,116933
9950,504,7,135126,116921
9952,505,7,135112,116919
9955,503,7,135114,116922
9957,501,7,135101,116916
9960,501,7,135095,116918
9962,501,7,135074,116902
9965,499,7,135083,116904
9967,503,7,135059,116898
9969,504,7,135058,116897
9972,508,7,135056,116894
9974,507,7,135054,116894
9977,507,7,135034,116887
9979,508,7,135025,116885
9982,507,7,135007,116884
9985,507,7,135012,116884
9987,508,7,134999,116879
9990,511,7,134992,116873
9992,512,7,134995,116871
9995,510,7,134972,116869
9997,511,7,134968,116863
10000,511,7,134970,116862
10002,512,7,134955,116854
10005,511,7,134950,116849
10007,510,7,134942,116858
10009,507,7,134937,116857
10012,503,7,134936,116855
10014,499,7,134933,116851
10017,502,7,134939,116847
10019,503,7,134931,116851
10022,500,7,134927,116845
10024,496,7,134920,116849
10027,492,7,134923,116841
10030,497,7,134926,116835
10032,495,7,134929,116860
10035,498,7,134932,116854
10037,501,7,134941,116859
10040,501,7,134944,116849
10042,505,7,134937,116864
10045,509,7,134952,116864
10047,512,7,134954,116865
10049,511,7,134953,116876
10052,508,7,134962,116871
10054,500,7,134968,116871
10057,504,7,134975,116876
10059,511,7,134992,116877
10062,510,7,134996,116891
10064,515,7,135006,116890
10066,523,7,135018,116892
10070,526,7,135020,116898
10072,522,7,135029,116902
10075,517,7,135042,116914
10077,505,7,135068,116913
10080,508,7,135064,116916
10082,514,7,135078,116920
10085,513,7,135085,116914
10087,509,7,135114,116924
10089,506,7,135115,116933
10092,501,7,135129,116940
10094,496,7,135142,116939
10097,498,7,135155,116953
10099,501,7,135172,116952
10102,501,7,135181,116960
10104,501,7,135200,116963
10106,505,7,135202,116963
10109,509,7,135230,116976
10112,506,7,135241,116981
10115,507,7,135248,116986
10117,515,7,135267,116990
10120,517,7,135267,116997
10122,520,7,135297,117000
10125,515,7,135311,117007
10127,513,7,135330,117009
10129,516,7,135336,117009
10132,519,7,135358,117022
10134,513,7,135364,117022
10137,517,7,135381,117031
10139,519,7,135399,117042
10142,520,7,135399,117061
10144,521,7,135433,117063
10146,520,8,135442,117063
10149,514,7,135457,117066
10151,511,7,135457,117065
10155,509,7,135481,117083
10157,511,7,135496,117079
10160,511,7,135511,117083
10162,509,7,135513,117087
10165,512,7,135513,117087
10167,520,7,135541,117100
10169,525,7,135555,117100
10172,522,7,135571,117103
10174,522,7,135571,117107
10177,525,7,135589,117119
10179,524,7,135596,117112
10182,521,7,135596,117119
10184,520,7,135625,117123
10186,520,7,135632,117123
10189,514,7,135651,117144
10191,514,7,135651,117139
10194,519,7,135665,117143
10196,520,7,135674,117143
10200,516,7,135690,117148
10202,518,7,135689,117156
10205,517,7,135700,117156
10207,515,7,135700,117164
10209,517,7,135716,117172
10212,516,7,135729,117172
10214,513,7,135740,117168
10217,508,7,135755,117175
10219,509,7,135755,117181
10222,507,7,135771,117182
10224,505,7,135777,117182
10226,500,7,135784,117183
10229,499,7,135805,117195
10231,500,7,135790,117195
10234,501,7,135819,117203
10236,499,7,135819,117204
10240,499,7,135829,117211
10242,500,7,135819,117211
10245,499,7,135849,117208
10247,498,7,135849,117214
10249,500,7,135838,117219
10252,500,7,135873,117219
10254,497,7,135871,117223
10257,492,7,135879,117230
10259,500,7,135879,117230
10262,498,7,135878,117233
10264,495,7,135893,117235
10266,493,7,135893,117232
10269,494,7,135909,117232
10271,492,7,135919,117239
10274,494,7,135919,117249
10276,497,7,135930,117249
10279,499,7,135930,117251
10281,498,7,135903,117255
10285,496,7,135942,117255
10287,493,7,135957,117259
10289,490,7,135929,117262
10292,498,7,135929,117268
10294,499,7,135942,117267
10297,498,7,135967,117267
10299,496,7,135981,117271
10302,495,7,135981,117269
10304,499,7,135969,117279
10306,499,7,135989,117279
10309,496,7,135989,117277
10311,495,7,135999,117286
10314,495,7,136006,117286
10316,494,7,136013,117285
10319,495,7,136013,117293
10321,496,7,136016,117289
10324,495,7,136017,117289
10327,500,7,136040,117294
10329,510,7,136040,117289
10332,506,7,136023,117298
10334,505,7,136027,117291
10337,507,7,136033,117303
10339,509,7,136038,117301
10342,511,7,136044,117301
10344,512,7,136035,117300
10346,520,7,136050,117302
10349,519,7,136068,117298
10351,518,7,136058,117298
10354,519,7,136069,117310
10356,521,7,136081,117312
10359,521,7,136083,117306
10361,518,7,136098,117316
10364,519,7,136088,117316
10366,521,7,136085,117320
10369,526,7,136102,117316
10372,536,7,136105,117324
10374,554,7,136118,117324
10377,566,7,136105,117334
10379,579,7,136123,117329
10382,583,7,136119,117328
10384,580,7,136138,117333
10386,565,7,136133,117333
10389,559,7,136119,117343
10391,553,7,136136,117337
10394,543,7,136151,117342
10396,517,7,136141,117347
10399,503,7,136147,117348
10401,491,7,136160,117345
10404,484,7,136166,117350
10406,479,7,136162,117352
10408,478,7,136175,117361
10412,478,7,136181,117360
10414,479,7,136187,117365
10417,478,7,136192,117365
10419,484,7,136199,117371
10422,489,7,136212,117367
10424,493,7,136213,117370
10426,492,7,136225,117380
10429,494,7,136232,117376
10431,495,7,136231,117375
10434,494,7,136242,117379
10436,492,7,136247,117376
10439,494,7,136249,117385
10441,499,7,136268,117385
10444,506,7,136270,117389
10446,509,7,136285,117392
10448,507,7,136293,117394
10451,501,7,136286,117408
10454,500,7,136296,117405
10457,502,7,136318,117415
10459,502,7,136330,117414
10462,499,7,136341,117423
10464,503,7,136339,117430
10466,503,7,136352,117437
10469,503,7,136371,117435
10471,503,7,136382,117441
10474,504,7,136388,117447
10476,502,7,136394,117449
10479,501,7,136406,117453
10481,500,7,136422,117455
10484,497,7,136430,117459
10486,503,7,136433,117460
10488,502,7,136446,117468
10491,501,7,136443,117470
10493,500,7,136470,117480
10497,503,7,136473,117480
10499,501,7,136493,117485
10502,502,7,136502,117485
10504,505,7,136501,117495
10506,505,7,136526,117487
10509,510,7,136520,117495
10511,510,7,136529,117499
10514,504,7,136543,117508
10516,505,7,136559,117516
10519,511,7,136566,117523
10521,511,7,136586,117529
10524,507,7,136588,117528
10526,502,7,136589,117520
10528,505,7,136603,117526
10531,505,7,136619,117519
10533,498,7,136626,117544
10536,498,7,136641,117548
10539,502,7,136642,117550
10542,504,7,136654,117532
10544,508,7,136664,117563
10546,512,7,136669,117560
10549,516,7,136684,117562
10551,515,7,136689,117568
10554,512,7,136698,117576
10556,505,7,136722,117580
10559,509,7,136718,117583
10561,518,7,136725,117584
10564,518,7,136740,117572
10566,515,7,136746,117573
10568,512,7,136754,117599
10571,510,7,136758,117599
10573,504,7,136771,117602
10576,509,7,136776,117595
10578,518,7,136766,117609
10582,519,7,136760,117603
10584,523,7,136769,117597
10586,531,7,136757,117596
10589,535,7,136741,117581
10591,534,7,136721,117576
10594,531,7,136699,117567
10596,521,7,136661,117554
10599,525,7,136661,117526
10601,530,7,136567,117504
10604,527,7,136504,117475
10606,525,7,136429,117441
10608,528,7,136342,117441
10611,531,7,136249,117378
10613,525,7,136147,117331
10616,530,7,136028,117290
10618,533,7,135911,117244
10621,535,7,135911,117214
10624,537,7,135679,117170
10626,535,7,135576,117170
10629,532,7,135483,117093
10631,524,7,135396,117051
10634,528,7,135311,117029
10636,529,7,135251,117013
10639,530,7,135251,117006
10641,532,7,135148,116979
10644,531,7,135113,116979
10646,522,7,135076,116944
10648,520,7,135076,116930
10651,523,7,135005,116915
10653,522,7,134975,116915
10656,515,7,134952,116893
10658,513,7,134925,116879
10661,512,7,134925,116875
10663,510,7,134872,116864
10665,508,7,134855,116864
10669,505,7,134843,116854
10671,503,7,134843,116848
10674,501,7,134807,116839
10676,498,7,134797,116839
10679,493,7,134804,116841
10681,493,7,134783,116834
10684,492,7,134779,116834
10686,493,7,134769,116824
10688,495,7,134769,116827
10691,492,7,134770,116826
10693,491,7,134764,116826
10696,491,7,134772,116826
10698,491,7,134772,116826
10701,488,7,134780,116830
10703,482,7,134775,116835
10705,482,7,134775,116836
10708,486,7,134798,116836
10711,489,7,134812,116841
10714,489,7,134812,116848
10716,490,7,134824,116848
10719,491,7,134829,116854
10721,492,7,134829,116858
10724,491,7,134842,116872
10726,489,7,134864,116872
10728,488,7,134871,116875
10731,486,7,134888,116882
10733,484,7,134907,116882
10736,480,7,134919,116890
10738,490,7,134919,116897
10741,490,7,134951,116910
10743,488,7,134971,116912
10745,487,7,134971,116918
10748,489,7,135002,116918
10750,489,7,135024,116933
10754,491,7,135013,116933
10756,493,7,135053,116933
10759,494,7,135036,116954
10761,504,7,135036,116960
10764,503,7,135104,116956
10766,499,8,135119,116956
10768,495,7,135092,116972
10771,501,7,135092,116987
10773,501,7,135108,116981
10776,499,7,135179,116981
10778,495,7,135194,116990
10781,494,7,135194,116999
10783,498,7,135177,117008
10785,498,7,135223,117008
10788,496,7,135223,117009
10790,495,7,135234,117015
10793,494,7,135244,117015
10796,493,7,135270,117018
10799,493,7,135270,117034
10801,493,7,135282,117037
10804,494,7,135306,117037
10806,493,7,135306,117047
10808,496,7,135324,117054
10811,497,7,135355,117054
10813,497,7,135355,117064
10816,498,7,135361,117077
10818,497,7,135385,117075
10821,502,7,135407,117075
10823,509,7,135407,117083
10825,516,7,135424,117083
10828,523,7,135449,117095
10830,527,7,135465,117100
10833,527,7,135465,117110
10835,521,7,135487,117115
10839,519,7,135499,117130
10841,520,7,135517,117124
10844,521,7,135529,117124
10846,522,7,135531,117127
10848,525,7,135543,117138
10851,525,7,135578,117138
10853,517,7,135564,117137
10856,515,7,135584,117143
10858,513,7,135598,117147
10861,511,7,135591,117152
10863,509,7,135604,117155
10865,506,7,135600,117153
10868,505,7,135610,117158
10870,503,7,135606,117152
10873,502,7,135609,117148
10875,500,7,135605,117150
10878,499,7,135610,117142
10881,499,7,135585,117143
10884,498,7,135587,117138
10886,495,7,135584,117130
10888,502,7,135567,117131
10891,507,7,135555,117124
10893,509,7,135544,117125
10896,507,7,135529,117107
10898,510,7,135513,117105
10901,506,7,135494,117109
10903,506,7,135487,117100
10905,509,7,135470,117087
10908,512,7,135451,117082
10910,510,7,135441,117078
10913,508,7,135413,117072
10915,507,7,135404,117069
10918,507,7,135390,117060
10920,506,7,135378,117059
10924,503,7,135358,117046
10926,507,7,135334,117041
10928,512,7,135317,117038
10931,516,7,135307,117042
10933,517,7,135303,117030
10936,515,7,135297,117023
10938,510,7,135283,117022
10941,513,7,135280,117015
10943,512,7,135269,117015
10945,508,7,135272,117022
10948,510,7,135268,117016
10950,509,7,135266,117020
10953,507,7,135261,117015
10955,507,7,135255,117015
10958,512,7,135246,117014
10960,513,7,135251,117013
10963,509,7,135248,117013
10966,510,7,135253,117013
10968,509,7,135259,117021
10971,507,7,135263,117011
10973,508,7,135263,117020
10976,508,7,135263,117020
10978,507,7,135266,117023
10981,503,7,135280,117021
10983,506,7,135275,117028
10985,507,7,135286,117030
10988,503,7,135288,117029
10990,504,7,135294,117033
10993,503,7,135303,117040
10995,503,7,135312,117044
10998,509,7,135325,117048
11000,510,7,135328,117056
11003,505,7,135340,117058
11005,507,7,135346,117058
11008,505,7,135355,117062
11011,500,7,135377,117059
11013,496,7,135384,117066
11016,500,7,135394,117071
11018,498,7,135420,117080
11021,496,7,135415,117088
11023,497,7,135434,117101
11025,500,7,135457,117078
11028,500,7,135468,117088
11030,497,7,135481,117107
11033,495,7,135496,117118
11035,491,7,135513,117124
11038,497,7,135533,117124
11040,505,7,135537,117140
11043,510,7,135555,117138
11045,513,7,135581,117148
11047,512,7,135585,117151
11051,510,7,135599,117163
11053,503,7,135622,117165
11056,508,7,135632,117176
11058,515,7,135646,117179
11061,515,7,135668,117183
11063,519,7,135690,117192
11065,526,7,135694,117186
11068,529,7,135723,117200
11070,526,7,135727,117210
11073,521,7,135742,117217
11075,521,7,135761,117212
11078,525,7,135778,117218
11080,528,7,135791,117227
11083,529,7,135791,117234
11085,530,7,135807,117237
11087,527,7,135820,117241
11090,522,7,135849,117244
11092,516,7,135855,117244
11096,512,7,135872,117264
11098,513,7,135887,117258
11101,515,7,135892,117258
11103,515,7,135913,117268
11105,516,7,135913,117273
11108,518,7,135929,117286
11110,514,7,135941,117295
11113,510,7,135964,117287
11115,506,7,135969,117290
11118,504,7,135971,117290
11120,507,7,135995,117305
11123,506,7,135995,117323
11125,505,7,136012,117326
11127,504,7,136023,117333
11130,501,7,136041,117326
11132,502,7,136044,117338
11136,502,7,136058,117338
11138,500,7,136058,117335
11141,499,7,136067,117331
11143,500,7,136086,117343
11145,497,7,136086,117340
11148,497,7,136098,117347
11150,499,7,136109,117347
11153,499,7,136122,117362
11155,499,7,136122,117352
11158,505,7,136134,117362
11160,508,7,136148,117362
11163,509,7,136164,117371
11165,506,7,136169,117378
11167,506,7,136176,117378
11170,509,7,136184,117382
11172,511,7,136184,117381
11175,513,7,136191,117383
11177,511,7,136207,117396
11181,508,7,136207,117398
11183,507,7,136222,117393
11185,506,7,136230,117393
11188,502,7,136230,117401
11190,504,7,136241,117398
11193,507,7,136245,117402
11195,506,7,136245,117411
11198,505,7,136261,117410
11200,506,7,136276,117410
11203,505,7,136271,117414
11205,504,7,136271,117417
11207,506,7,136295,117417
11210,506,7,136291,117422
11212,502,7,136291,117427
11215,502,7,136307,117424
11217,504,7,136320,117424
11220,503,7,136306,117435
11223,508,7,136306,117431
11225,510,7,136325,117440
11228,512,7,136340,117440
11230,510,7,136347,117438
11233,507,7,136347,117450
11235,508,7,136332,117449
11238,508,7,136356,117449
11240,502,7,136356,117463
11243,504,7,136368,117458
11245,507,7,136382,117467
11247,503,7,136382,117462
11250,506,7,136383,117462
11252,510,7,136365,117464
11255,513,7,136365,117467
11257,515,7,136361,117464
11260,518,7,136406,117464
11262,521,7,136411,117467
11265,528,7,136413,117476
11268,558,7,136413,117472
11270,571,7,136416,117479
11273,576,7,136401,117479
11275,576,7,136431,117482
11278,566,7,136431,117488
11280,559,7,136430,117487
11283,553,7,136435,117487
11285,547,7,136438,117478
11287,531,7,136438,117491
11290,511,7,136444,117502
11292,496,7,136447,117492
11295,490,7,136449,117495
11297,491,7,136450,117499
11300,493,7,136461,117499
11302,496,7,136474,117499
11304,502,7,136474,117499
11308,499,7,136469,117503
11310,497,7,136470,117503
11313,500,7,136488,117502
11315,504,7,136489,117514
11318,501,7,136489,117507
11320,501,7,136494,117521
