TimeStamp,ECG Data,GSR Data,PPG_Red Data,PPG_IR Data
73243,514,9,138649,113694
73245,511,10,138661,113704
73248,508,10,138671,113701
18,397,5,123041,113345
20,353,5,137772,113338
23,324,5,137575,113336
25,312,5,137555,113335
28,314,5,137553,113331
30,319,5,137560,113326
33,321,6,137544,113331
35,330,6,137541,113331
37,342,6,137530,113329
40,350,6,137532,113334
43,364,6,137533,113331
46,372,6,137542,113335
48,379,6,137540,113328
51,383,6,137542,113328
53,383,6,137547,113334
56,379,7,137557,113334
58,376,7,137569,113331
60,378,7,137571,113334
63,385,7,137569,113338
65,394,7,137583,113343
68,404,7,137594,113347
70,414,7,137608,113351
73,419,7,137616,113352
75,425,7,137634,113355
77,426,7,137635,113363
80,428,8,137650,113366
82,432,8,137669,113382
86,442,8,137676,113381
88,452,8,137679,113383
91,459,8,137702,113383
93,457,8,137709,113386
96,457,8,137728,113392
98,458,8,137743,113398
100,459,8,137773,113413
103,464,8,137782,113417
105,478,8,137801,113422
108,486,8,137816,113421
110,491,9,137834,113431
113,490,8,137853,113440
115,488,9,137872,113444
117,487,8,137888,113460
120,487,8,137904,113455
122,490,9,137918,113468
125,496,9,137947,113469
128,504,9,137969,113475
131,510,9,137965,113483
133,507,9,137990,113492
136,503,9,138011,113496
138,499,9,138022,113493
140,497,9,138037,113508
143,501,9,138060,113512
145,507,10,138079,113519
148,512,9,138095,113510
150,520,9,138105,113514
153,518,10,138119,113518
155,510,9,138137,113527
157,507,9,138147,113548
160,504,10,138163,113546
162,505,10,138190,113544
165,513,10,138194,113549
167,521,10,138202,113556
171,522,10,138220,113561
173,521,10,138230,113570
176,518,10,138244,113568
178,514,10,138254,113577
180,511,10,138265,113581
183,512,10,138277,113580
185,522,10,138285,113564
188,528,10,138298,113564
190,530,10,138316,113593
193,526,10,138322,113598
195,521,10,138333,113604
197,519,10,138338,113613
200,516,10,138345,113611
202,518,10,138355,113610
205,526,10,138368,113623
207,533,10,138380,113628
210,534,11,138380,113624
212,532,11,138391,113618
216,529,10,138387,113629
218,523,10,138403,113635
220,520,10,138417,113634
223,526,11,138417,113641
225,534,11,138431,113638
228,538,11,138438,113643
230,538,11,138445,113637
233,534,11,138448,113642
235,528,11,138467,113651
237,526,11,138467,113647
240,523,11,138469,113649
242,524,11,138475,113649
245,533,11,138493,113667
247,534,11,138491,113656
250,533,11,138491,113663
252,530,11,138505,113671
256,527,11,138516,113671
258,522,11,138531,113687
260,520,11,138524,113672
263,526,11,138531,113680
265,531,11,138531,113694
268,537,11,138542,113688
270,538,11,138537,113677
273,534,11,138537,113683
275,530,11,138553,113688
277,529,11,138563,113688
280,525,11,138572,113697
282,526,11,138572,113691
285,537,11,138573,113708
287,542,11,138573,113704
290,543,11,138582,113702
292,538,11,138593,113697
295,533,11,138593,113696
297,531,11,138599,113705
300,529,11,138601,113705
303,529,11,138612,113722
305,538,11,138626,113714
308,548,11,138618,113713
310,548,11,138618,113718
313,545,11,138635,113720
315,543,11,138635,113716
317,540,11,138635,113727
320,537,11,138646,113726
322,540,11,138654,113726
325,545,12,138661,113733
327,552,12,138661,113725
330,553,11,138670,113728
332,551,11,138665,113728
335,547,12,138679,113728
337,541,11,138683,113733
339,537,12,138683,113742
343,541,12,138687,113744
345,548,12,138696,113744
348,555,12,138697,113740
350,556,12,138703,113740
353,552,11,138700,113749
355,543,12,138700,113750
357,539,12,138713,113750
360,536,12,138715,113752
362,536,12,138715,113745
365,542,12,138707,113745
367,549,12,138713,113754
370,551,12,138726,113759
372,542,12,138726,113759
375,536,11,138744,113760
377,533,12,138745,113760
379,529,12,138751,113768
382,529,12,138755,113761
385,532,12,138735,113761
388,540,12,138735,113768
390,542,12,138734,113774
393,542,12,138770,113774
395,546,12,138770,113768
397,555,12,138772,113775
400,564,12,138779,113775
402,575,12,138743,113780
405,600,12,138741,113783
407,605,12,138791,113783
410,600,12,138791,113785
412,585,12,138794,113781
415,572,12,138796,113781
417,549,12,138796,113793
419,532,12,138811,113792
422,525,12,138806,113792
424,518,12,138819,113791
428,509,12,138819,113789
430,502,12,138814,113792
433,497,12,138821,113792
435,495,12,138832,113790
437,495,12,138832,113796
440,495,12,138829,113796
442,497,12,138840,113791
445,505,12,138840,113799
447,508,11,138835,113804
450,508,11,138858,113804
452,503,11,138852,113803
455,498,11,138852,113807
457,494,11,138872,113814
459,486,11,138862,113814
462,490,11,138890,113818
464,495,11,138868,113817
467,503,11,138868,113818
470,499,11,138892,113817
473,494,11,138885,113817
475,490,11,138895,113827
477,488,11,138897,113824
480,487,11,138909,113821
482,488,11,138916,113830
485,492,11,138930,113834
487,496,11,138930,113835
490,497,11,138927,113843
492,493,11,138928,113840
495,485,11,138935,113840
497,483,11,138948,113841
499,482,11,138958,113844
502,481,11,138979,113850
504,490,11,138993,113856
507,493,11,138988,113855
509,494,10,138985,113862
513,492,10,138993,113860
515,486,10,138992,113864
517,481,10,139000,113864
520,477,10,139007,113877
522,478,10,139013,113872
525,482,10,139022,113878
527,487,10,139029,113876
530,490,11,139030,113885
532,483,10,139045,113879
535,481,10,139060,113882
537,478,10,139057,113884
539,475,10,139069,113888
542,473,10,139080,113891
544,478,10,139080,113894
547,483,10,139083,113901
549,485,10,139083,113898
552,481,10,139096,113904
555,476,10,139113,113901
557,473,10,139113,113909
560,466,10,139131,113910
562,465,10,139129,113911
565,467,10,139122,113919
567,469,10,139137,113919
570,472,10,139141,113911
572,470,9,139140,113913
575,467,9,139146,113925
577,469,9,139154,113920
579,469,10,139155,113921
582,476,9,139161,113919
584,483,9,139166,113934
587,493,9,139167,113930
589,502,9,139176,113937
592,505,9,139177,113935
594,508,9,139174,113941
596,508,9,139191,113939
600,507,9,139197,113941
602,510,9,139209,113945
605,518,9,139216,113947
607,528,9,139216,113955
610,530,9,139217,113955
612,529,9,139219,113952
615,527,9,139224,113941
617,523,9,139212,113952
619,520,9,139212,113949
622,521,9,139207,113940
624,530,9,139203,113940
627,538,9,139185,113929
629,540,9,139175,113923
632,534,9,139170,113914
634,524,9,139145,113914
636,521,9,139117,113902
640,518,9,139094,113892
642,520,9,139056,113879
645,529,9,138991,113859
647,540,9,138936,113831
650,545,9,138877,113808
652,545,9,138801,113778
655,543,9,138712,113754
657,543,9,138622,113719
659,542,9,138520,113691
662,546,9,138415,113649
664,561,9,138311,113596
667,571,10,138204,113596
669,580,9,138103,113544
672,576,9,138008,113513
674,571,10,137920,113482
676,568,9,137812,113447
679,563,9,137731,113413
681,561,9,137654,113388
685,563,9,137577,113368
687,565,10,137505,113343
690,564,10,137505,113311
692,559,10,137365,113293
695,553,10,137291,113261
697,543,9,137229,113241
699,537,10,137170,113219
702,537,10,137116,113206
704,545,10,137054,113175
707,553,10,137013,113161
709,553,10,136974,113155
712,550,10,136921,113137
714,543,10,136899,113132
716,541,10,136854,113111
719,538,10,136836,113104
721,539,10,136804,113092
724,548,10,136789,113097
727,551,10,136766,113086
730,552,10,136766,113090
732,549,10,136737,113081
735,546,10,136738,113081
737,539,10,136737,113088
739,536,10,136734,113069
742,541,10,136723,113075
744,547,10,136731,113083
747,550,10,136742,113086
749,553,10,136728,113081
752,548,10,136728,113074
754,543,10,136752,113084
756,540,10,136751,113084
759,535,10,136772,113091
761,536,10,136779,113089
764,546,10,136793,113111
766,550,10,136793,113101
770,553,10,136818,113103
772,546,10,136840,113111
775,541,10,136840,113113
777,537,10,136881,113127
779,534,10,136899,113127
782,534,10,136920,113156
784,540,10,136941,113143
787,548,10,136964,113152
789,547,10,136964,113164
792,542,10,136985,113168
794,538,10,137033,113181
796,534,10,137033,113185
799,530,10,137079,113194
801,530,10,137110,113194
804,534,10,137137,113211
806,541,10,137137,113218
809,542,10,137152,113225
812,539,10,137210,113225
815,535,10,137229,113240
817,529,10,137266,113243
819,524,10,137266,113262
822,527,10,137291,113270
824,534,10,137319,113270
827,538,10,137336,113282
829,540,10,137358,113283
832,537,10,137378,113295
834,528,10,137378,113298
836,525,10,137402,113310
839,524,10,137448,113309
841,524,10,137448,113318
844,529,10,137489,113318
846,536,10,137506,113329
849,539,10,137525,113339
851,533,10,137525,113353
855,528,10,137571,113356
857,525,10,137602,113356
859,522,10,137630,113367
862,522,10,137645,113371
864,525,10,137641,113371
867,534,10,137641,113389
869,534,10,137669,113405
872,530,10,137726,113405
874,524,10,137726,113415
876,520,10,137752,113420
879,518,10,137781,113420
881,518,10,137776,113428
884,526,10,137780,113439
886,530,10,137822,113439
889,532,10,137822,113436
891,527,10,137839,113444
894,524,10,137825,113444
897,519,10,137825,113453
899,516,10,137842,113450
902,519,10,137883,113450
904,523,10,137893,113458
907,531,10,137893,113461
909,533,10,137894,113461
912,527,10,137894,113460
914,524,10,137869,113463
916,522,10,137887,113463
919,517,10,137887,113453
921,522,10,137884,113460
924,527,10,137856,113460
926,530,10,137848,113458
929,534,10,137848,113442
931,533,10,137844,113442
934,523,10,137846,113442
936,523,10,137821,113435
939,522,10,137821,113428
942,524,10,137794,113415
944,529,10,137781,113411
947,534,10,137765,113409
949,533,10,137748,113402
952,530,10,137732,113402
954,527,10,137695,113399
956,524,10,137695,113387
959,522,10,137670,113387
961,522,10,137670,113377
964,529,10,137650,113364
966,533,10,137633,113366
969,534,10,137621,113366
971,530,10,137610,113358
974,527,10,137586,113355
976,526,10,137575,113354
978,522,10,137569,113343
982,520,10,137561,113347
984,527,10,137542,113342
987,531,10,137526,113335
989,533,10,137526,113325
992,531,10,137520,113329
994,519,10,137510,113329
996,519,10,137500,113325
999,517,10,137479,113328
1001,518,10,137494,113324
1004,522,10,137489,113320
1006,531,10,137491,113316
1009,531,10,137491,113323
1011,527,10,137477,113314
1014,522,10,137475,113318
1016,520,10,137472,113322
1018,516,10,137480,113323
1021,516,10,137487,113314
1024,520,10,137500,113321
1027,527,10,137506,113326
1029,529,10,137512,113329
1032,523,10,137524,113330
1034,520,10,137514,113332
1036,518,10,137529,113340
1039,514,10,137540,113338
1041,515,10,137541,113345
1044,522,10,137565,113352
1046,526,10,137576,113348
1049,528,10,137588,113356
1051,522,10,137601,113353
1054,519,10,137603,113369
1056,519,10,137625,113371
1058,516,10,137641,113373
1061,517,10,137650,113383
1063,522,10,137660,113374
1067,527,10,137680,113385
1069,529,10,137691,113392
1072,525,10,137720,113394
1074,518,10,137722,113400
1076,515,10,137736,113411
1079,512,10,137761,113404
1081,512,10,137781,113419
1084,518,10,137801,113431
1086,525,10,137811,113435
1089,527,10,137818,113438
1091,525,10,137837,113437
1094,521,10,137856,113450
1096,515,10,137862,113449
1098,511,10,137883,113457
1101,511,10,137910,113459
1103,517,10,137929,113463
1106,524,10,137933,113469
1108,528,10,137942,113472
1112,524,10,137969,113481
1114,515,10,137978,113490
1116,512,10,137995,113494
1119,509,10,138020,113501
1121,509,10,138043,113508
1124,516,10,138049,113515
1126,523,10,138058,113523
1129,524,10,138091,113521
1131,522,10,138092,113533
1134,518,10,138119,113532
1136,513,10,138133,113545
1138,508,10,138137,113547
1141,508,10,138143,113545
1143,518,10,138165,113544
1146,526,10,138174,113544
1148,526,10,138189,113567
1152,522,10,138197,113567
1154,513,10,138210,113573
1156,513,10,138212,113572
1159,511,10,138227,113572
1161,513,10,138246,113589
1164,522,10,138240,113589
1166,525,10,138264,113595
1169,526,10,138271,113593
1171,524,10,138284,113570
1174,521,10,138295,113600
1176,517,10,138300,113603
1178,513,10,138307,113610
1181,513,10,138324,113609
1183,519,10,138329,113615
1186,522,10,138334,113620
1188,522,10,138351,113623
1191,519,10,138355,113623
1193,516,10,138360,113631
1196,513,10,138366,113630
1199,510,10,138383,113627
1201,510,10,138386,113629
1204,519,10,138390,113636
1206,523,10,138399,113632
1209,523,10,138396,113640
1211,518,10,138404,113641
1214,514,10,138412,113632
1216,506,10,138424,113647
1218,504,10,138424,113640
1221,506,10,138435,113647
1223,515,10,138447,113644
1226,517,10,138447,113657
1228,519,10,138462,113660
1231,517,10,138465,113660
1233,509,10,138478,113677
1235,507,10,138478,113657
1239,504,10,138493,113668
1241,506,10,138493,113679
1244,514,10,138491,113675
1246,521,10,138501,113675
1249,519,10,138501,113679
1251,516,10,138506,113680
1254,513,10,138516,113680
1256,508,10,138525,113691
1258,504,10,138532,113686
1261,508,10,138532,113705
1263,514,10,138532,113698
1266,521,10,138538,113694
1268,523,10,138543,113694
1271,520,10,138551,113698
1273,510,10,138560,113695
1275,508,10,138560,113699
1278,506,10,138560,113703
1281,506,10,138571,113703
1284,515,10,138582,113707
1286,517,10,138582,113702
1289,520,10,138581,113702
1291,519,10,138581,113702
1294,515,10,138603,113706
1296,509,10,138597,113716
1298,505,10,138597,113719
1301,507,10,138608,113719
1303,513,10,138607,113719
1306,518,10,138624,113722
1308,522,10,138624,113724
1311,517,10,138627,113726
1313,512,10,138626,113722
1315,510,10,138640,113722
1318,504,10,138640,113728
1320,506,10,138630,113726
1324,514,10,138630,113736
1326,518,10,138634,113736
1329,520,10,138652,113731
1331,513,10,138652,113738
1334,510,10,138643,113738
1336,508,10,138657,113740
1338,503,10,138657,113739
1341,506,10,138665,113739
1343,514,10,138659,113739
1346,521,10,138662,113742
1348,522,10,138676,113742
1351,519,10,138680,113742
1353,514,10,138680,113754
1355,518,10,138690,113747
1358,526,10,138684,113751
1360,537,10,138684,113753
1363,553,10,138698,113753
1366,573,10,138683,113750
1369,586,10,138708,113757
1371,585,10,138708,113757
1374,575,10,138713,113765
1543,517,10,139112,113909
1546,523,10,139113,113923
1548,524,10,139115,113917
1551,520,10,139122,113925
1553,515,10,139124,113923
1555,513,10,139117,113929
1558,511,10,139136,113919
1560,511,10,139145,113921
1563,517,10,139155,113933
1565,524,10,139162,113930
1568,524,10,139156,113932
1570,522,10,139148,113934
1573,519,10,139159,113932
1575,515,10,139162,113940
1577,511,10,139163,113935
1581,512,10,139153,113927
1583,518,10,139162,113928
1586,526,10,139144,113927
1588,528,10,139136,113925
1591,524,10,139122,113923
1593,518,10,139108,113908
1595,515,10,139093,113904
1598,512,10,139081,113888
1600,513,10,139044,113884
1603,520,10,138992,113864
1605,528,10,138954,113843
1608,529,10,138899,113828
1610,526,10,138829,113798
1613,523,10,138757,113776
1615,519,10,138672,113742
1617,514,10,138579,113715
1620,514,10,138474,113670
1623,522,10,138376,113633
1626,530,10,138266,113592
1628,529,10,138168,113554
1631,523,10,138065,113528
1633,517,10,137968,113508
1635,512,10,137867,113472
1638,508,10,137787,113438
1640,505,10,137704,113416
1643,509,10,137629,113384
1645,513,10,137552,113364
1648,512,10,137552,113332
1650,509,10,137408,113311
1653,504,10,137321,113284
1655,497,10,137250,113257
1657,491,10,137193,113237
1660,490,10,137132,113217
1662,498,10,137065,113171
1666,505,10,137016,113160
1668,504,10,136978,113169
1671,499,10,136929,113149
1673,491,10,136890,113137
1675,490,10,136854,113116
1678,488,10,136827,113112
1680,487,10,136797,113106
1683,496,10,136766,113099
1685,499,10,136748,113091
1688,500,10,136733,113079
1690,498,10,136721,113071
1693,495,10,136704,113071
1695,493,10,136701,113064
1697,489,10,136684,113060
1700,489,10,136692,113067
1702,496,10,136672,113064
1705,502,10,136673,113070
1708,504,10,136677,113056
1711,501,10,136677,113057
1713,500,10,136675,113060
1715,498,10,136691,113060
1718,493,10,136694,113065
1720,493,10,136693,113065
1723,504,10,136707,113082
1725,511,10,136721,113069
1728,512,10,136735,113069
1730,507,10,136747,113084
1733,504,10,136766,113088
1735,498,10,136773,113084
1737,496,10,136773,113095
1740,498,10,136805,113105
1742,507,10,136825,113100
1745,510,10,136825,113114
1747,512,10,136865,113117
1751,510,10,136885,113117
1753,504,10,136906,113150
1755,502,10,136906,113144
1758,499,10,136947,113146
1760,499,10,136960,113146
1763,504,10,136995,113169
1765,513,10,137011,113170
1768,513,10,137011,113181
1770,511,10,137050,113189
1773,508,10,137068,113189
1775,503,10,137088,113203
1777,499,10,137088,113204
1780,501,10,137131,113208
1782,507,10,137142,113208
1785,513,10,137171,113213
1787,516,10,137171,113232
1790,510,10,137199,113245
1793,505,10,137223,113248
1795,504,10,137238,113248
1798,499,10,137238,113257
1800,501,10,137267,113255
1803,509,10,137283,113264
1805,513,10,137302,113264
1808,515,10,137320,113277
1810,508,10,137320,113282
1813,504,10,137341,113286
1815,503,10,137375,113298
1817,498,10,137375,113304
1820,501,10,137411,113309
1822,508,10,137422,113309
1825,513,10,137443,113318
1827,516,10,137443,113329
1830,510,10,137481,113336
1832,507,10,137506,113336
1835,505,10,137536,113339
1838,500,10,137536,113354
1840,501,10,137541,113361
1843,507,10,137560,113360
1845,512,10,137560,113365
1848,513,10,137607,113365
1850,510,10,137607,113375
1853,506,10,137625,113370
1855,505,10,137641,113370
1857,501,10,137623,113382
1860,501,10,137623,113394
1862,508,10,137631,113398
1865,512,10,137673,113398
1867,510,10,137673,113388
1870,508,10,137678,113388
1872,506,10,137678,113393
1874,504,10,137680,113403
1878,502,10,137668,113403
1880,501,10,137639,113392
1883,510,10,137639,113385
1885,515,10,137629,113387
1888,515,10,137657,113387
1890,511,10,137650,113387
1893,504,10,137650,113377
1895,503,10,137638,113377
1897,499,10,137594,113374
1900,502,10,137594,113370
1902,509,10,137587,113363
1905,514,10,137596,113363
1907,515,10,137576,113361
1910,509,10,137576,113354
1912,504,10,137556,113347
1914,503,10,137546,113347
1917,501,10,137525,113334
1920,502,10,137517,113340
1923,515,10,137517,113323
1925,520,10,137510,113321
1928,520,10,137463,113321
1930,515,10,137453,113313
1933,510,10,137453,113307
1935,502,10,137445,113308
1937,500,10,137427,113308
1940,501,10,137414,113301
1942,509,10,137405,113307
1945,516,10,137392,113289
1947,519,10,137389,113288
1950,514,10,137359,113284
1952,509,10,137357,113290
1954,507,10,137357,113276
1957,504,10,137357,113283
1959,501,10,137344,113283
1963,509,10,137334,113281
1965,516,10,137348,113279
1968,519,10,137344,113270
1970,512,10,137346,113264
1973,508,10,137348,113269
1975,505,10,137325,113280
1977,502,10,137332,113270
1980,502,10,137324,113262
1982,513,10,137332,113278
1985,517,10,137330,113275
1987,518,10,137345,113277
1990,515,10,137340,113277
1992,507,10,137346,113282
1994,506,10,137368,113286
1997,503,10,137364,113288
1999,503,10,137372,113280
2002,507,10,137378,113286
2004,517,10,137380,113288
2008,517,10,137390,113300
2010,513,10,137404,113296
2013,509,10,137418,113302
2015,506,10,137429,113300
2017,503,10,137427,113313
2020,502,10,137453,113311
2022,512,10,137454,113315
2025,516,10,137468,113326
2027,518,10,137489,113328
2030,515,10,137503,113327
2032,509,10,137521,113336
2034,507,10,137538,113341
2037,504,10,137546,113348
2039,504,10,137558,113351
2042,509,10,137563,113360
2044,516,10,137584,113358
2048,519,10,137595,113365
2050,511,10,137607,113372
2053,509,10,137621,113377
2055,509,10,137644,113376
2057,506,10,137670,113394
2060,505,10,137682,113386
2062,512,10,137700,113390
2065,518,10,137710,113402
2067,520,10,137721,113408
2070,516,10,137732,113408
2072,511,10,137752,113417
2074,508,10,137755,113426
2077,501,10,137774,113429
2079,501,10,137788,113438
2082,505,10,137809,113435
2084,513,10,137831,113441
2087,518,10,137834,113450
2089,515,10,137839,113448
2093,508,10,137859,113458
2095,504,10,137871,113463
2097,501,10,137889,113472
2100,502,10,137898,113464
2102,507,10,137915,113464
2105,512,10,137924,113461
2107,518,10,137939,113463
2110,516,10,137948,113467
2112,508,10,137955,113478
2114,506,10,137965,113492
2117,503,10,137986,113497
2119,502,10,138003,113493
2122,508,10,138003,113498
2124,517,10,138006,113506
2127,518,10,138021,113501
2129,516,10,138031,113513
2132,512,10,138042,113508
2135,506,10,138042,113517
2137,501,10,138062,113527
2140,500,10,138063,113523
2142,508,10,138077,113505
2145,517,10,138083,113501
2147,515,10,138100,113533
2150,512,10,138106,113542
2152,504,10,138114,113543
2154,503,10,138122,113544
2157,501,10,138119,113542
2159,500,10,138138,113547
2162,507,10,138144,113551
2164,509,10,138159,113552
2167,509,10,138157,113551
2169,506,10,138172,113546
2172,503,10,138173,113558
2174,501,10,138173,113563
2177,497,10,138181,113565
2180,495,10,138199,113561
2182,502,10,138200,113560
2185,508,10,138204,113564
2187,509,10,138220,113568
2190,506,10,138217,113570
2192,503,10,138232,113572
2194,501,10,138232,113576
2197,499,10,138231,113570
2199,502,10,138245,113588
2202,505,10,138257,113581
2204,512,10,138256,113580
2207,514,10,138273,113584
2209,507,10,138281,113596
2212,505,10,138281,113589
2214,504,10,138281,113597
2216,502,10,138295,113597
2220,503,10,138299,113598
2222,508,10,138301,113593
2225,512,10,138301,113601
2227,516,10,138308,113598
2230,514,10,138316,113598
2232,507,10,138325,113625
2234,505,10,138325,113611
2237,501,10,138331,113614
2239,501,10,138345,113614
2242,505,10,138351,113626
2244,514,10,138349,113622
2247,514,10,138349,113631
2249,511,10,138364,113629
2252,509,10,138364,113629
2254,504,10,138367,113631
2256,501,10,138367,113635
2259,502,10,138377,113629
2262,507,10,138379,113629
2265,513,10,138398,113636
2267,516,10,138391,113642
2270,513,10,138402,113641
2272,506,10,138402,113645
2274,504,10,138402,113646
2277,503,10,138411,113645
2279,502,10,138411,113646
2282,509,10,138423,113652
2284,515,10,138422,113652
2287,518,10,138430,113653
2289,512,10,138441,113653
2292,509,10,138431,113655
2294,503,10,138436,113661
2296,501,10,138438,113661
2299,506,10,138444,113656
2301,510,10,138444,113665
2305,519,10,138460,113665
2307,525,10,138452,113665
2310,527,10,138451,113660
2312,537,10,138451,113664
2314,548,10,138455,113669
2317,555,10,138471,113669
2319,564,10,138478,113668
2322,572,10,138482,113667
2324,575,10,138482,113666
2327,568,10,138480,113668
2329,559,10,138493,113668
2332,543,10,138494,113675
2334,519,10,138494,113673
2336,503,10,138497,113675
2339,495,10,138509,113675
2341,491,10,138497,113680
2344,491,10,138500,113683
2347,491,10,138500,113684
2350,487,10,138535,113683
2352,486,10,138543,113683
2354,486,10,138543,113697
2357,487,10,138543,113689
2359,492,10,138546,113696
2362,498,10,138531,113696
2364,502,10,138583,113705
2367,503,10,138583,113714
2369,501,10,138586,113714
2372,497,10,138582,113714
2374,493,10,138582,113719
2376,490,10,138593,113720
2379,492,10,138613,113720
2381,497,10,138591,113725
2384,507,10,138591,113730
2386,507,10,138598,113730
2390,504,10,138633,113730
2392,500,10,138641,113730
2394,498,10,138652,113728
2397,494,10,138652,113742
2399,497,10,138654,113738
2402,502,10,138661,113738
2404,507,10,138681,113745
2407,508,10,138681,113747
2409,503,10,138685,113761
2412,501,10,138704,113761
2414,498,10,138704,113760
2416,496,10,138718,113760
2419,496,10,138730,113761
2421,503,10,138747,113772
2424,515,10,138747,113761
2426,514,10,138758,113766
2429,511,10,138755,113766
2432,506,10,138764,113772
2434,504,10,138764,113783
2437,501,10,138770,113789
2439,499,10,138775,113789
2442,507,10,138797,113787
2444,514,10,138805,113793
2447,514,10,138805,113794
2449,508,10,138812,113794
2452,506,10,138829,113800
2454,504,10,138819,113805
2456,501,10,138836,113811
2459,501,10,138848,113804
2461,511,10,138853,113807
2464,516,10,138862,113812
2466,517,10,138862,113820
2469,515,10,138872,113820
2471,508,10,138875,113814
2473,507,10,138896,113822
2477,504,10,138889,113824
2479,503,10,138898,113826
2482,507,10,138902,113828
2484,517,10,138915,113836
2487,517,10,138919,113834
2489,514,10,138935,113843
2492,510,10,138927,113841
2494,507,10,138929,113842
2496,505,10,138940,113845
2499,503,10,138940,113844
2501,512,10,138948,113848
2504,516,10,138944,113854
2506,519,10,138957,113850
2509,517,10,138960,113859
2511,511,10,138980,113859
2513,510,10,138982,113858
2516,507,10,138973,113855
2519,507,10,138979,113861
2522,511,10,138987,113864
2524,519,10,138987,113862
2527,522,10,138990,113868
2529,515,10,138999,113874
2532,514,10,139004,113874
2534,514,10,139000,113870
2536,513,10,138999,113870
2539,512,10,139005,113868
2541,519,10,139000,113863
2544,524,10,138976,113861
2546,527,10,138967,113852
2549,524,10,138948,113837
2551,519,10,138924,113829
2553,516,10,138884,113820
2556,512,10,138847,113805
2558,512,10,138801,113790
2562,517,10,138746,113765
2564,524,10,138690,113742
2567,529,10,138608,113718
2569,526,10,138524,113689
2572,520,10,138442,113656
2574,515,10,138340,113617
2576,512,10,138230,113594
2579,511,10,138147,113558
2581,516,10,138057,113526
2584,520,10,137962,113485
2586,525,10,137861,113457
2589,521,10,137771,113424
2591,510,10,137692,113394
2593,506,10,137610,113370
2596,501,10,137536,113344
2598,499,10,137466,113315
2601,502,10,137378,113291
2604,507,10,137300,113273
2607,508,10,137244,113244
2609,504,10,137166,113217
2612,499,10,137105,113199
2614,492,10,137044,113182
2616,486,10,136986,113166
2619,485,10,136946,113144
2621,493,10,136890,113108
2624,499,10,136850,113108
2626,499,10,136813,113101
2629,493,10,136785,113089
2631,488,10,136755,113085
2633,485,10,136729,113070
2636,482,10,136696,113066
2638,482,10,136680,113061
2641,487,10,136661,113053
2643,494,10,136648,113052
2647,495,10,136648,113045
2649,495,10,136629,113040
2652,493,10,136624,113032
2654,489,10,136608,113031
2656,485,10,136611,113035
2659,484,10,136605,113034
2661,493,10,136606,113013
2664,500,10,136605,113013
2666,504,10,136606,113029
2669,500,10,136614,113033
2671,496,10,136620,113032
2673,495,10,136628,113027
2676,492,10,136635,113043
2678,492,10,136637,113040
2681,497,10,136641,113045
2683,506,10,136662,113051
2686,507,10,136662,113048
2689,506,10,136685,113051
2692,503,10,136693,113051
2694,498,10,136721,113058
2696,495,10,136724,113062
2699,498,10,136752,113094
2701,508,10,136767,113074
2704,512,10,136787,113087
2706,514,10,136798,113085
2709,512,10,136822,113103
2711,506,10,136835,113104
2713,504,10,136835,113109
2716,502,10,136867,113122
2718,502,10,136892,113122
2721,512,10,136916,113134
2723,515,10,136930,113137
2726,515,10,136930,113160
2728,512,10,136967,113167
2732,510,10,136986,113167
2734,506,10,137013,113163
2736,503,10,137013,113167
2739,504,10,137037,113176
2741,509,10,137059,113176
2744,515,10,137087,113192
2746,517,10,137097,113191
2749,514,10,137097,113198
2751,512,10,137134,113203
2753,511,10,137147,113203
2756,507,10,137165,113224
2758,507,10,137165,113223
2761,514,10,137202,113237
2763,520,10,137222,113237
2766,522,10,137248,113238
2768,517,10,137264,113259
2771,513,10,137285,113268
2774,507,10,137309,113274
2776,505,10,137323,113274
2779,508,10,137347,113285
2781,512,10,137347,113288
2784,517,10,137365,113294
2786,519,10,137399,113294
2789,516,10,137421,113312
2791,508,10,137421,113315
2793,505,10,137441,113321
2796,502,10,137478,113321
2798,501,11,137492,113326
2801,504,10,137498,113340
2803,511,10,137498,113344
2806,512,10,137518,113344
2808,510,10,137540,113344
2811,506,10,137540,113348
2813,502,10,137540,113350
2816,498,10,137554,113356
2819,497,10,137561,113356
2821,502,10,137550,113352
2824,507,10,137543,113355
2826,510,10,137543,113353
2829,504,10,137561,113351
2831,502,10,137561,113351
2833,500,10,137556,113355
2836,495,10,137547,113340
2838,495,10,137520,113340
2841,503,10,137520,113342
2843,508,10,137515,113343
2846,508,10,137517,113343
2848,502,10,137517,113331
2851,498,10,137520,113328
2853,498,11,137485,113328
2855,494,10,137485,113311
2859,495,10,137457,113311
2861,499,10,137446,113313
2864,509,10,137446,113297
2866,510,10,137391,113284
2869,506,10,137394,113284
2871,503,10,137386,113288
2873,500,10,137362,113281
2876,495,10,137362,113268
2878,497,10,137343,113260
2881,502,10,137313,113260
2883,505,11,137303,113266
2886,507,10,137303,113244
2888,505,10,137255,113244
2891,499,11,137255,113235
2893,496,10,137249,113231
2895,494,10,137236,113231
2898,496,10,137213,113226
2900,503,10,137203,113236
2904,514,10,137203,113214
2906,513,10,137192,113213
2909,509,11,137158,113213
2911,504,10,137153,113209
2913,502,10,137153,113207
2916,500,10,137156,113202
2918,497,10,137143,113202
2921,504,11,137135,113206
2923,511,10,137133,113202
2926,512,10,137133,113204
2928,505,10,137135,113210
2931,502,10,137127,113210
2933,500,10,137128,113202
2935,500,10,137121,113202
2938,500,10,137125,113196
2940,509,10,137136,113201
2944,513,10,137139,113205
2946,513,10,137139,113210
2949,510,10,137129,113202
2951,504,10,137141,113208
2953,499,10,137150,113208
2956,498,10,137150,113205
2958,499,10,137163,113208
2961,503,10,137180,113218
2963,513,10,137179,113212
2966,512,10,137181,113211
2968,508,10,137208,113219
2971,504,10,137202,113220
2973,501,10,137221,113231
2975,499,10,137228,113233
2978,497,10,137231,113237
2980,506,10,137244,113234
2983,510,10,137254,113247
2985,513,10,137271,113242
2989,510,10,137300,113257
2991,504,10,137311,113260
2993,504,10,137319,113268
2996,502,10,137329,113274
2998,502,10,137339,113269
3001,506,10,137359,113274
3003,517,10,137372,113289
3006,518,10,137383,113287
3008,514,10,137401,113290
3011,510,10,137412,113295
3013,506,10,137436,113297
3015,502,10,137452,113305
3018,503,10,137454,113308
3020,507,10,137470,113321
3023,513,10,137481,113317
3025,516,10,137502,113319
3028,512,10,137514,113329
3031,504,10,137532,113339
3033,502,10,137535,113341
3036,500,10,137559,113347
3038,499,10,137576,113349
3041,504,10,137580,113356
3043,510,10,137601,113356
3046,510,10,137610,113363
3048,508,10,137619,113367
3051,504,10,137635,113378
3053,500,10,137629,113379
3055,496,10,137652,113384
3058,496,10,137663,113380
3060,501,10,137688,113391
3063,509,10,137687,113384
3065,512,10,137692,113398
3068,508,10,137708,113398
3070,500,10,137717,113403
3073,498,10,137722,113411
3076,496,10,137739,113403
3078,495,10,137752,113413
3081,500,10,137759,113414
3083,508,10,137766,113418
3086,509,10,137785,113417
3088,507,10,137780,113423
3091,503,10,137796,113425
3093,500,10,137792,113424
3095,496,10,137802,113434
3098,495,10,137808,113432
3100,503,10,137807,113422
3103,509,10,137822,113422
3105,512,10,137828,113443
3108,506,10,137834,113433
3110,501,10,137844,113447
3112,498,10,137848,113447
3116,495,10,137856,113451
3118,495,10,137862,113445
3121,500,10,137862,113450
3123,506,10,137872,113455
3126,507,10,137872,113445
3128,507,10,137883,113457
3131,505,10,137886,113466
3133,500,10,137890,113461
3135,497,10,137907,113455
3138,495,10,137897,113464
3140,503,10,137906,113436
3143,510,10,137903,113436
3145,513,10,137916,113471
3148,509,10,137919,113471
3150,505,10,137920,113474
3152,503,10,137922,113473
3155,499,10,137932,113474
3158,498,10,137925,113461
3161,502,10,137933,113457
3163,511,10,137941,113479
3166,512,10,137941,113477
3168,511,10,137950,113481
3171,508,10,137947,113480
3173,504,10,137947,113478
3175,500,10,137960,113475
3178,503,10,137958,113492
3180,512,10,137965,113480
3183,516,10,137958,113483
3185,516,10,137969,113480
3188,512,10,137973,113480
3190,510,10,137985,113506
3192,511,10,137981,113483
3195,518,10,137979,113495
3197,531,10,137990,113504
3201,544,10,137989,113503
3203,571,10,137990,113506
3206,578,10,137990,113495
3208,579,10,137997,113492
3211,575,10,137998,113492
3213,559,10,138011,113507
3215,549,10,138008,113492
3218,532,11,138006,113512
3220,528,11,138006,113490
3223,521,10,138017,113495
3225,513,10,138014,113495
3228,501,11,138019,113508
3230,483,10,138023,113507
3232,480,10,138023,113504
3235,478,10,138037,113509
3237,480,10,138042,113509
3240,494,10,138045,113508
3243,498,10,138045,113510
3246,503,10,138050,113510
3248,502,10,138057,113510
3251,500,10,138073,113518
3253,497,10,138070,113519
3255,493,10,138070,113526
3258,494,10,138080,113527
3260,500,10,138087,113527
3263,506,10,138100,113537
3265,508,10,138093,113530
3268,506,10,138104,113542
3270,498,10,138104,113540
3272,497,10,138118,113540
3275,496,10,138118,113539
3277,494,10,138118,113551
3280,501,10,138145,113559
3282,507,10,138147,113559
3286,510,10,138153,113554
3288,506,10,138153,113555
3291,502,10,138161,113557
3293,499,10,138167,113557
3295,497,10,138173,113561
3298,496,10,138180,113561
3300,499,10,138176,113561
3303,506,10,138183,113562
3305,509,10,138183,113569
3308,505,10,138201,113572
3310,504,10,138213,113572
3312,502,10,138221,113580
3315,499,10,138221,113583
3317,499,10,138224,113587
3320,505,10,138213,113587
3322,511,10,138228,113592
3325,514,10,138250,113603
3328,509,10,138250,113591
3331,505,10,138262,113598
3333,504,10,138269,113598
3335,501,10,138271,113605
3338,501,10,138271,113604
3340,508,10,138283,113604
3343,513,10,138251,113604
3345,516,10,138266,113617
3348,509,10,138266,113613
3350,506,10,138304,113613
3352,504,10,138318,113624
3355,500,10,138318,113626
3357,502,10,138321,113628
3360,508,10,138299,113628
3362,514,10,138307,113630
3365,517,10,138307,113639
3367,514,10,138337,113641
3371,512,10,138340,113641
3373,510,10,138362,113637
3375,508,10,138365,113648
3378,508,10,138365,113658
3380,515,10,138365,113649
3383,520,10,138365,113649
3385,522,10,138378,113662
3388,520,10,138378,113665
3390,516,10,138396,113666
3392,509,10,138399,113666
3395,509,10,138407,113675
3397,513,10,138407,113674
3400,519,10,138401,113684
3402,524,10,138405,113681
3405,526,10,138420,113681
3407,521,10,138420,113685
3410,521,10,138434,113685
3412,520,10,138438,113690
3415,518,10,138438,113693
3418,515,10,138438,113692
3420,521,10,138430,113692
3423,528,10,138435,113697
3425,532,10,138433,113699
3428,526,10,138433,113695
3430,520,10,138426,113695
3432,520,10,138412,113684
3435,517,10,138386,113677
3437,517,10,138369,113664
3440,521,10,138350,113653
3442,532,10,138306,113632
3445,533,10,138215,113619
3447,530,10,138158,113604
3450,525,10,138158,113565
3452,519,10,138098,113565
3454,518,10,138022,113524
3458,518,10,137944,113515
3460,523,10,137882,113482
3463,528,10,137799,113448
3465,530,10,137707,113413
3468,525,10,137616,113393
3470,520,10,137538,113364
3472,515,10,137452,113330
3475,513,10,137365,113303
3477,510,10,137284,113277
3480,512,10,137195,113247
3482,515,10,137121,113224
3485,516,10,137065,113196
3487,506,10,136983,113164
3490,501,10,136910,113149
3492,500,10,136847,113128
3494,497,10,136783,113105
3497,493,10,136731,113093
3500,498,10,136681,113070
3503,502,10,136635,113056
3505,503,10,136594,113035
3508,498,10,136556,113023
3510,493,10,136509,113020
3512,491,10,136491,113009
3515,488,10,136462,112990
3517,486,10,136438,112987
3520,494,10,136424,112976
3522,497,10,136399,112967
3525,499,10,136376,112963
3527,498,10,136354,112951
3530,494,10,136351,112951
3532,489,10,136328,112950
3534,486,10,136313,112941
3537,486,10,136314,112931
3539,491,10,136311,112932
3543,496,10,136310,112922
3545,502,10,136286,112919
3548,501,10,136296,112922
3550,493,10,136285,112920
3552,491,10,136290,112918
3555,488,10,136288,112916
3557,488,10,136293,112923
3560,493,10,136301,112924
3562,502,10,136302,112917
3565,504,10,136310,112928
3567,503,10,136306,112920
3570,499,10,136331,112921
3572,496,10,136322,112930
3574,491,10,136333,112925
3577,490,10,136346,112928
3579,496,10,136353,112923
3582,505,10,136367,112928
3585,509,10,136376,112931
3588,506,10,136386,112934
3590,497,10,136396,112933
3592,495,10,136411,112952
3595,492,10,136422,112946
3597,491,10,136438,112957
3600,496,10,136443,112958
3602,505,10,136460,112957
3605,507,10,136460,112965
3607,507,10,136495,112979
3610,504,10,136501,112983
3612,499,10,136518,112988
3614,495,10,136532,112992
3617,493,10,136544,112995
3619,502,10,136558,112976
3622,509,10,136567,112976
3624,513,10,136593,113012
3628,509,10,136598,113009
3630,504,10,136607,113015
3632,501,10,136618,113020
3635,498,10,136640,113025
3637,496,10,136652,113033
3640,499,10,136663,113033
3642,509,10,136681,113042
3645,510,10,136681,113046
3647,510,10,136700,113045
3650,507,10,136712,113056
3652,503,10,136728,113052
3654,499,10,136740,113056
3657,502,10,136751,113059
3659,510,10,136767,113068
3662,515,10,136783,113066
3664,518,10,136799,113078
3667,515,10,136810,113082
3670,507,11,136842,113095
3672,505,10,136842,113100
3675,504,10,136866,113100
3677,503,10,136882,113100
3680,511,10,136907,113112
3682,515,11,136912,113115
3685,516,10,136912,113121
3687,514,11,136948,113127
3690,511,10,136950,113127
3692,505,10,136964,113153
3694,502,11,136968,113140
3697,503,11,136981,113137
3699,507,10,136981,113153
3702,514,10,136978,113143
3704,516,10,136984,113147
3707,511,11,136984,113142
3709,507,11,136995,113144
3712,505,11,136999,113144
3715,500,11,137005,113152
3717,499,10,137001,113144
3720,509,11,136999,113154
3722,514,11,136999,113144
3725,517,10,136980,113145
3727,512,11,136974,113132
3730,507,11,136974,113135
3732,505,11,136957,113126
3734,504,10,136947,113126
3737,501,11,136940,113129
3739,507,10,136940,113111
3742,514,11,136906,113106
3744,517,11,136895,113106
3747,516,10,136890,113098
3749,507,11,136877,113099
3751,504,11,136855,113099
3755,500,11,136847,113082
3757,500,11,136847,113086
3760,506,11,136819,113073
3762,512,11,136802,113073
3765,515,10,136789,113071
3767,509,11,136789,113064
3770,505,11,136776,113056
3772,504,11,136756,113048
3774,499,11,136756,113049
3777,501,11,136729,113041
3779,506,11,136712,113041
3782,515,11,136708,113031
3784,517,11,136692,113031
3787,514,11,136683,113032
3789,507,11,136683,113037
3791,505,11,136686,113023
3794,503,11,136663,113030
3796,500,11,136663,113024
3800,506,11,136652,113024
3802,515,11,136645,113025
3805,518,11,136651,113025
3807,513,11,136651,113015
3810,508,11,136644,113021
3812,505,11,136646,113021
3814,503,11,136651,113015
3817,500,11,136643,113018
3819,503,11,136630,113018
3822,513,11,136630,113020
3824,514,11,136620,113012
3827,510,11,136652,113012
3829,504,11,136652,113022
3831,502,11,136670,113023
3834,501,11,136678,113023
3836,499,11,136656,113026
3840,508,11,136656,113030
3842,514,11,136653,113032
3845,514,11,136700,113032
3847,512,11,136715,113034
3850,504,11,136715,113033
3852,502,11,136726,113033
3854,500,11,136728,113050
3857,500,11,136728,113044
3859,507,11,136735,113052
3862,513,11,136779,113052
3864,515,11,136792,113066
3867,510,11,136792,113075
3869,505,11,136806,113079
3871,504,11,136816,113079
3874,502,11,136846,113077
3876,502,11,136868,113093
3879,514,11,136868,113093
3881,519,11,136875,113098
3885,520,11,136902,113098
3887,516,10,136911,113108
3890,512,11,136911,113110
3892,508,11,136926,113117
3894,502,11,136945,113117
3897,504,11,137002,113126
3899,509,11,136986,113135
3902,521,11,136986,113143
3904,521,11,137005,113149
3907,517,11,137018,113149
3909,514,11,137034,113149
3911,512,11,137037,113155
3914,512,11,137054,113164
3916,511,11,137075,113164
3919,513,10,137119,113173
3921,519,11,137101,113177
3924,524,11,137119,113180
3927,520,11,137147,113190
3930,515,11,137156,113183
3932,512,11,137170,113201
3934,510,11,137170,113198
3937,506,11,137189,113198
3939,508,10,137190,113201
3942,516,10,137216,113203
3944,519,11,137226,113208
3947,515,10,137241,113203
3949,511,11,137222,113210
3951,508,10,137240,113213
3954,505,11,137255,113221
3956,502,10,137265,113216
3959,504,11,137278,113226
3961,513,11,137285,113224
3964,514,11,137294,113228
3966,511,10,137301,113227
3970,507,11,137315,113234
3972,501,10,137335,113237
3974,498,11,137337,113243
3977,497,11,137327,113246
3979,500,11,137350,113244
3982,506,11,137363,113243
3984,511,11,137376,113251
3987,511,10,137375,113256
3989,507,10,137393,113257
3991,505,10,137397,113260
3994,502,10,137405,113262
3996,500,11,137418,113269
3999,503,10,137419,113266
4001,510,10,137417,113267
4004,515,10,137435,113273
4006,508,10,137442,113275
4009,504,11,137449,113280
4012,503,11,137457,113284
4014,502,10,137475,113285
4017,500,11,137467,113283
4019,504,11,137488,113290
4022,510,10,137492,113293
4024,512,10,137505,113293
4027,510,10,137505,113305
4029,508,10,137505,113297
4031,506,10,137510,113304
4034,502,10,137522,113312
4036,500,10,137527,113305
4039,504,10,137542,113304
4041,512,10,137551,113309
4044,517,10,137544,113312
4046,514,10,137550,113313
4049,509,10,137558,113315
4051,503,10,137561,113317
4054,500,10,137571,113325
4057,499,10,137584,113321
4059,502,10,137597,113327
4062,508,10,137601,113322
4064,515,10,137597,113326
4067,514,10,137604,113327
4069,506,10,137602,113328
4071,503,10,137617,113338
4074,500,10,137622,113336
4076,498,10,137636,113340
4079,502,10,137643,113337
4081,511,10,137640,113340
4084,514,10,137658,113354
4086,513,10,137662,113350
4089,508,11,137668,113354
4091,504,10,137676,113358
4093,500,10,137691,113361
4097,498,10,137695,113364
4099,505,10,137710,113347
4102,516,10,137712,113356
4104,517,10,137726,113375
4107,516,10,137720,113374
4109,514,10,137732,113377
4111,520,10,137737,113376
4114,527,10,137756,113388
4116,538,10,137758,113388
4119,568,11,137772,113389
4121,580,10,137783,113392
4124,585,10,137786,113399
4126,584,10,137792,113388
4129,576,10,137811,113398
4131,565,10,137821,113403
4133,543,10,137828,113411
4136,528,10,137839,113415
4139,518,10,137848,113407
4142,506,11,137862,113415
4144,497,10,137884,113429
4147,490,11,137884,113426
4149,486,11,137905,113434
4151,486,10,137904,113434
4154,487,10,137921,113448
4156,492,10,137930,113440
4159,498,10,137945,113446
4161,510,10,137958,113446
4164,516,10,137967,113460
4166,513,10,137986,113460
4169,510,10,137986,113463
4171,510,10,137999,113472
4173,509,11,138006,113472
4176,509,10,138028,113481
4178,515,10,138037,113478
4182,521,10,138037,113486
4184,528,10,138062,113487
4187,528,10,138072,113487
4189,521,10,138088,113517
4191,519,11,138088,113496
4194,516,10,138107,113507
4196,514,11,138123,113507
4199,518,11,138141,113521
4201,528,10,138145,113515
4204,530,10,138145,113523
4206,529,10,138174,113534
4209,527,10,138183,113534
4211,523,10,138193,113537
4213,518,10,138193,113536
4216,518,11,138217,113544
4218,522,10,138222,113544
4221,528,10,138236,113550
4224,533,11,138236,113555
4227,528,10,138258,113552
4229,521,10,138271,113558
4231,516,10,138281,113567
4234,511,10,138295,113569
4236,509,10,138302,113569
4239,511,10,138306,113578
4241,518,10,138306,113579
4244,520,10,138323,113588
4246,518,10,138329,113588
4249,513,10,138353,113590
4251,507,10,138357,113594
4253,502,10,138357,113600
4256,502,10,138372,113608
4258,506,10,138380,113608
4261,515,10,138384,113604
4263,516,10,138397,113604
4267,513,10,138396,113614
4269,503,10,138396,113616
4271,501,10,138409,113623
4274,499,10,138426,113623
4276,496,10,138431,113619
4279,497,10,138435,113627
4281,504,10,138435,113629
4284,505,10,138444,113627
4286,504,10,138453,113627
4289,498,10,138460,113641
4291,492,10,138460,113640
4293,487,10,138462,113637
4296,485,10,138452,113637
4298,488,10,138466,113642
4301,493,10,138467,113647
4303,496,10,138467,113642
4306,491,10,138489,113643
4308,487,10,138502,113643
4311,484,10,138503,113643
4314,480,10,138503,113649
4316,480,10,138508,113651
4319,484,10,138475,113651
4321,488,10,138478,113654
4324,491,10,138478,113654
4326,488,9,138516,113654
4329,483,10,138508,113663
4331,480,10,138508,113649
4333,477,10,138502,113643
4336,477,9,138482,113643
4338,480,9,138437,113644
4341,490,9,138437,113622
4343,492,9,138412,113603
4346,489,9,138370,113603
4348,485,9,138342,113589
4350,483,9,138280,113570
4354,479,9,138280,113531
4356,479,9,138224,113508
4359,484,9,138079,113508
4361,489,9,137985,113473
4364,493,9,137985,113409
4366,493,9,137892,113383
4369,484,9,137807,113383
4371,484,9,137607,113349
4373,482,9,137607,113276
4376,482,9,137511,113245
4378,487,9,137409,113208
4381,493,9,137313,113175
4383,493,9,137222,113147
4386,489,9,137136,113147
4388,484,9,136957,113125
4390,481,9,136957,113090
4393,480,9,136884,113059
4396,476,9,136802,113040
4399,476,8,136720,113013
4401,481,9,136643,112986
4404,485,9,136582,112962
4406,478,9,136557,112950
4409,472,9,136432,112937
4411,468,8,136404,112928
4413,465,9,136404,112894
4416,461,8,136360,112886
4418,463,9,136328,112886
4421,469,8,136302,112871
4423,475,8,136275,112856
4426,474,9,136262,112852
4428,466,8,136243,112846
4430,463,8,136222,112833
4433,459,8,136201,112830
4435,457,8,136181,112827
4439,461,8,136172,112816
4441,474,8,136155,112811
4444,476,8,136139,112814
4446,474,8,136145,112808
4449,470,8,136133,112804
4451,467,8,136141,112795
4453,465,8,136134,112794
4456,464,8,136122,112802
4458,469,8,136122,112789
4461,477,8,136123,112791
4463,484,8,136108,112792
4466,482,8,136126,112792
4468,479,8,136120,112789
4470,477,8,136125,112798
4473,474,8,136126,112792
4475,474,8,136149,112798
4478,479,8,136130,112798
4481,486,8,136156,112800
4484,493,8,136168,112806
4486,493,8,136174,112811
4489,489,8,136189,112815
4491,485,8,136187,112815
4493,482,8,136193,112821
4496,481,8,136218,112819
4498,484,8,136220,112825
4501,491,8,136229,112826
4503,497,8,136233,112827
4506,499,8,136240,112832
4508,492,8,136253,112832
4510,490,8,136262,112853
4513,488,8,136277,112839
4515,486,8,136288,112848
4518,491,8,136315,112849
4520,500,8,136319,112852
4524,503,8,136319,112861
4526,502,8,136332,112861
4529,499,8,136340,112862
4531,496,8,136336,112869
4533,491,8,136349,112869
4536,490,8,136363,112871
4538,495,8,136378,112880
4541,504,7,136370,112882
4543,508,7,136382,112879
4546,506,8,136384,112886
4548,499,8,136397,112882
4550,497,8,136408,112884
4553,494,8,136403,112887
4555,492,8,136416,112883
4558,496,8,136408,112892
4560,505,8,136418,112898
4563,508,8,136434,112897
4566,507,7,136435,112892
4569,504,7,136442,112893
4571,500,8,136457,112895
4573,496,7,136460,112908
4576,494,7,136462,112905
4578,501,8,136469,112903
4581,512,8,136485,112897
4583,512,8,136495,112918
4586,510,8,136500,112925
4588,500,8,136514,112927
4590,500,7,136524,112928
4593,499,8,136539,112932
4595,497,8,136542,112938
4598,504,8,136553,112937
4600,507,7,136564,112945
4603,509,7,136576,112942
4605,509,8,136579,112926
4609,505,7,136596,112952
4611,502,8,136598,112951
4613,498,8,136598,112948
4616,495,7,136604,112946
4618,499,8,136604,112938
4621,509,7,136610,112940
4623,509,8,136611,112954
4626,507,8,136613,112949
4628,504,8,136613,112945
4630,502,7,136616,112954
4633,497,8,136613,112956
4635,495,7,136607,112947
4638,504,7,136606,112948
4640,513,8,136607,112941
4643,515,8,136602,112941
4645,513,7,136595,112944
4648,508,8,136590,112944
4651,503,7,136590,112947
4653,501,8,136581,112936
4656,502,8,136574,112937
4658,508,8,136573,112944
4661,513,8,136558,112933
4663,518,8,136545,112937
4666,514,7,136545,112921
4668,509,7,136529,112912
4670,508,8,136522,112912
4673,503,7,136518,112913
4675,501,8,136516,112907
4678,510,8,136500,112927
4680,515,8,136500,112902
4683,519,7,136477,112894
4685,514,7,136461,112890
4688,508,7,136461,112890
4690,504,8,136447,112876
4692,502,8,136442,112876
4696,499,7,136452,112896
4698,501,8,136431,112879
4701,511,7,136426,112878
4703,513,8,136426,112874
4706,510,7,136411,112876
4708,507,8,136402,112870
4710,503,8,136402,112865
4713,500,8,136396,112867
4715,498,8,136388,112867
4718,499,8,136397,112859
4720,507,7,136397,112862
4723,510,7,136389,112865
4725,508,8,136392,112865
4728,505,8,136392,112864
4730,499,8,136390,112869
4732,494,7,136390,112863
4736,492,8,136391,112867
4738,496,7,136409,112867
4741,501,8,136408,112864
4743,507,8,136408,112868
4746,501,7,136412,112872
4748,497,7,136418,112872
4750,494,7,136433,112869
4753,488,7,136429,112873
4755,486,7,136437,112873
4758,487,7,136452,112884
4760,496,7,136452,112891
4763,500,7,136466,112889
4765,500,7,136475,112889
4768,495,7,136492,112894
4770,490,7,136492,112896
4772,486,7,136501,112902
4775,484,7,136516,112902
4777,487,7,136512,112907
4781,492,7,136522,112911
4783,493,7,136542,112911
4786,489,7,136562,112916
4788,480,7,136562,112923
4790,480,7,136580,112930
4793,478,7,136602,112936
4795,475,7,136602,112937
4798,481,7,136625,112937
4800,491,7,136618,112943
4803,495,7,136661,112952
4805,492,7,136661,112957
4808,487,7,136683,112957
4810,485,7,136691,112957
4812,482,7,136708,112969
4815,477,7,136708,112973
4817,482,7,136715,112980
4820,486,7,136709,112980
4823,488,7,136771,112987
4826,481,7,136771,112994
4828,476,7,136764,112997
4830,473,7,136772,112997
4833,467,7,136772,113000
4835,466,7,136817,113010
4838,470,7,136814,113010
4840,474,7,136832,113015
4843,478,7,136832,113022
4845,476,7,136873,113022
4848,470,7,136873,113030
4850,468,7,136884,113036
4852,468,7,136892,113036
4855,470,7,136928,113038
4857,478,7,136930,113051
4860,496,7,136930,113049
4862,500,7,136957,113054
4866,499,7,136956,113054
4868,496,7,136965,113058
4870,495,7,136965,113068
4873,494,7,136977,113067
4875,490,7,136985,113067
4878,497,7,137019,113063
4880,506,7,137013,113073
4883,510,7,137013,113079
4885,504,7,137024,113085
4888,501,7,137029,113085
4890,499,7,137040,113081
4892,498,7,137044,113090
4895,498,7,137056,113085
4897,504,7,137061,113094
4900,510,7,137074,113095
4902,514,7,137074,113099
4905,511,7,137080,113103
4908,507,7,137086,113100
4910,503,7,137096,113100
4913,503,7,137103,113103
4915,502,7,137118,113103
4918,505,7,137130,113103
4920,516,7,137121,113115
4923,519,7,137135,113113
4925,517,7,137138,113113
4928,512,7,137139,113115
4930,508,7,137141,113123
4932,505,7,137142,113124
4935,502,7,137150,113124
4937,508,7,137154,113131
4940,514,7,137163,113131
4942,519,7,137165,113122
4945,519,7,137175,113123
4947,510,7,137182,113135
4950,510,7,137183,113130
4953,510,7,137179,113129
4955,508,7,137192,113135
4958,510,7,137196,113137
4960,517,7,137206,113135
4963,522,7,137203,113141
4965,517,7,137209,113138
4968,514,7,137211,113144
4970,514,7,137221,113139
4972,512,7,137210,113139
4975,509,7,137216,113141
4977,514,7,137223,113138
4980,520,7,137233,113156
4982,526,7,137235,113154
4985,526,7,137239,113144
4987,527,7,137235,113148
4989,530,7,137239,113145
4993,536,7,137240,113156
4995,542,7,137248,113148
4998,560,7,137245,113152
5000,586,7,137264,113153
5003,593,7,137254,113162
5005,594,7,137262,113151
5008,585,7,137272,113160
5010,564,7,137263,113159
5012,550,7,137268,113164
5015,539,7,137271,113159
5017,532,7,137285,113160
5020,528,7,137283,113165
5022,524,7,137287,113161
5025,517,7,137286,113167
5027,507,7,137297,113171
5029,506,7,137301,113178
5032,506,7,137309,113173
5035,506,7,137322,113176
5038,513,7,137318,113179
5040,526,7,137329,113179
5043,531,7,137333,113188
5045,531,7,137340,113187
5048,528,7,137339,113191
5050,525,7,137345,113191
5052,520,7,137361,113194
5055,518,7,137374,113199
5057,524,7,137369,113190
5060,534,7,137383,113188
5062,534,7,137397,113200
5065,532,7,137388,113207
5067,523,7,137392,113213
5069,523,7,137403,113212
5072,523,7,137415,113213
5074,520,7,137421,113213
5078,526,7,137436,113221
5080,530,7,137441,113226
5083,532,7,137453,113229
5085,533,7,137453,113216
5088,529,7,137472,113241
5090,525,7,137479,113233
5092,522,7,137485,113241
5095,519,7,137495,113243
5097,520,7,137501,113246
5100,527,7,137515,113254
5102,531,7,137518,113256
5105,530,7,137523,113251
5107,528,7,137529,113252
5109,526,7,137540,113261
5112,524,7,137552,113262
5114,521,7,137549,113246
5117,528,7,137565,113263
5120,534,7,137573,113262
5123,536,7,137578,113274
5125,534,7,137589,113280
5128,531,7,137594,113273
5130,524,7,137615,113288
5132,523,7,137617,113287
5135,521,7,137634,113295
5137,525,7,137634,113291
5140,535,7,137642,113296
5142,536,7,137655,113308
5145,534,7,137655,113310
5147,531,7,137666,113313
5149,529,7,137673,113313
5152,524,7,137689,113326
5154,523,7,137693,113311
5157,525,7,137705,113313
5159,532,7,137713,113313
5163,536,7,137721,113324
5165,532,7,137717,113323
5168,529,7,137717,113329
5170,527,7,137732,113324
5172,526,7,137739,113324
5175,523,7,137749,113334
5177,526,7,137757,113333
5180,531,7,137763,113353
5182,537,7,137759,113343
5185,537,7,137773,113343
5187,530,7,137783,113351
5189,527,7,137789,113351
5192,524,8,137793,113356
5194,523,7,137793,113351
5197,527,7,137798,113354
5199,532,7,137814,113354
5202,536,7,137822,113362
5204,533,7,137822,113360
5208,530,7,137819,113358
5210,529,7,137827,113355
5212,523,7,137827,113361
5215,522,7,137824,113357
5217,526,7,137821,113357
5220,532,7,137815,113352
5222,538,7,137793,113353
5225,537,7,137787,113345
5227,529,7,137787,113331
5229,527,7,137760,113314
5232,525,7,137681,113301
5234,521,7,137681,113292
5237,527,7,137595,113266
5239,535,8,137533,113266
5242,539,7,137476,113251
5244,537,7,137476,113195
5248,531,7,137337,113171
5250,528,7,137252,113171
5252,526,7,137186,113144
5255,521,7,137097,113091
5257,522,7,137016,113091
5260,527,7,136945,113033
5262,532,7,136945,113005
5265,529,7,136861,112988
5267,526,7,136699,112988
5269,521,7,136627,112958
5272,513,7,136627,112904
5274,509,7,136558,112886
5277,511,7,136408,112886
5279,515,7,136358,112871
5282,517,7,136327,112855
5284,512,8,136327,112808
5287,505,7,136236,112798
5289,502,8,136184,112798
5292,498,7,136163,112782
5295,493,7,136163,112760
5297,498,7,136121,112735
5300,502,7,136024,112735
5302,504,7,136043,112729
5305,500,7,136043,112713
5307,496,7,136022,112704
5309,494,7,135941,112704
5312,490,7,135941,112687
5314,489,8,135969,112687
5317,493,7,135901,112687
5319,499,7,135931,112678
5322,504,7,135931,112676
5324,503,7,135908,112676
5327,496,7,135908,112661
5329,493,7,135906,112671
5331,491,7,135899,112671
5335,491,7,135896,112661
5337,495,7,135883,112661
5340,509,7,135883,112649
5342,513,7,135889,112655
5345,510,7,135889,112655
5347,505,7,135896,112656
5349,502,7,135890,112660
5352,500,7,135890,112654
5354,495,7,135899,112654
5357,499,7,135919,112656
5359,506,8,135920,112669
5362,512,7,135920,112661
5364,511,7,135929,112671
5367,504,7,135938,112671
5369,504,7,135960,112674
5371,500,7,135960,112674
5374,497,7,135964,112680
5377,503,7,135971,112684
5380,510,7,135985,112691
5382,513,7,136004,112693
5385,511,7,136013,112693
5387,508,7,136017,112699
5389,506,7,136032,112696
5392,507,7,136042,112714
5394,503,7,136057,112708
5397,506,7,136088,112709
5399,512,7,136088,112723
5402,514,7,136101,112718
5404,511,7,136106,112718
5407,510,7,136116,112728
5409,510,7,136116,112735
5411,509,7,136134,112733
5414,506,7,136154,112736
5416,511,7,136162,112741
5420,516,7,136174,112738
5422,520,7,136171,112746
5425,519,7,136182,112761
5427,517,7,136182,112759
5429,515,7,136200,112763
5432,512,7,136207,112759
5434,509,7,136211,112756
5437,511,7,136224,112771
5439,517,7,136241,112770
5442,523,7,136257,112773
5444,523,7,136264,112779
5447,519,7,136274,112782
5449,513,7,136282,112784
5451,511,7,136294,112781
5454,509,7,136304,112791
5456,511,7,136315,112797
5459,516,7,136331,112802
5462,521,7,136347,112800
5465,524,7,136354,112805
5467,517,7,136368,112818
5469,515,7,136385,112819
5472,512,7,136398,112822
5474,508,7,136398,112826
5477,509,7,136407,112837
5479,516,7,136427,112833
5482,522,7,136427,112831
5484,517,7,136434,112837
5487,514,7,136443,112837
5489,514,7,136454,112844
5491,513,7,136470,112842
5494,510,7,136478,112851
5496,513,7,136476,112843
5499,517,7,136470,112844
5501,525,7,136477,112855
5505,523,7,136462,112850
5507,519,7,136477,112849
5509,516,7,136483,112844
5512,514,7,136482,112849
5514,511,7,136472,112843
5517,513,7,136466,112844
5519,522,7,136456,112839
5522,526,7,136459,112840
5524,526,7,136441,112836
5527,523,7,136440,112833
5529,518,7,136432,112829
5531,513,7,136426,112832
5534,511,7,136425,112830
5536,514,7,136417,112816
5539,523,7,136404,112817
5541,528,7,136397,112804
5544,526,7,136381,112805
5547,518,7,136373,112802
5549,516,7,136362,112811
5552,513,7,136351,112806
5554,509,7,136355,112798
5557,512,7,136338,112796
5559,521,7,136327,112797
5562,526,7,136318,112788
5564,522,7,136321,112799
5567,521,7,136305,112764
5569,520,7,136303,112764
5571,517,7,136304,112784
5574,512,7,136294,112787
5576,513,7,136288,112784
5579,517,7,136288,112780
5581,527,7,136278,112779
5584,525,7,136285,112780
5586,520,7,136280,112772
5588,515,7,136268,112778
5592,513,7,136275,112778
5594,510,7,136274,112776
5597,510,7,136276,112773
5599,518,7,136281,112781
5602,523,7,136277,112774
5604,520,7,136280,112778
5607,519,7,136289,112771
5609,518,7,136292,112770
5611,516,7,136290,112778
5614,513,7,136297,112783
5616,517,7,136298,112781
5619,521,7,136314,112786
5621,528,7,136323,112787
5624,528,7,136322,112789
5626,522,7,136335,112795
5628,521,7,136340,112795
5632,519,7,136359,112811
5634,518,7,136365,112803
5637,520,7,136388,112803
5639,528,7,136382,112808
5642,532,7,136403,112816
5644,529,7,136414,112813
5647,525,7,136414,112828
5649,523,7,136438,112828
5651,522,7,136446,112828
5654,518,7,136476,112843
5656,522,7,136482,112836
5659,527,7,136482,112843
5661,533,7,136493,112851
5664,533,7,136520,112851
5666,526,7,136523,112868
5668,523,7,136523,112862
5671,521,7,136550,112873
5673,518,7,136571,112873
5677,519,7,136586,112877
5679,528,7,136593,112880
5682,530,7,136593,112887
5684,530,7,136629,112884
5687,527,7,136637,112884
5689,520,7,136656,112905
5691,515,7,136656,112905
5694,513,7,136676,112909
5696,516,7,136688,112909
5699,521,7,136707,112913
5701,527,7,136724,112923
5704,526,7,136735,112925
5706,518,7,136735,112930
5708,516,7,136743,112944
5711,514,7,136773,112944
5713,510,7,136773,112942
5716,515,7,136800,112955
5719,522,7,136804,112955
5722,527,7,136826,112950
5724,526,7,136839,112955
5727,523,7,136848,112962
5729,517,7,136863,112964
5731,516,7,136873,112964
5734,515,7,136878,112973
5736,517,7,136878,112976
5739,526,7,136888,112981
5741,532,7,136905,112981
5744,532,7,136913,112987
5746,525,7,136913,112995
5748,523,7,136922,112994
5751,522,7,136952,112994
5753,519,7,136962,112995
5756,520,7,136971,112996
5758,529,7,136971,113002
5762,534,7,136979,113012
5764,534,7,136992,113012
5767,529,7,136998,113019
5769,523,7,136998,113018
5771,519,7,137018,113023
5774,517,7,137028,113023
5776,518,7,137017,113021
5779,525,7,137015,113034
5781,527,7,137057,113034
5784,525,7,137057,113037
5786,520,7,137067,113037
5788,516,7,137066,113037
5791,514,7,137073,113037
5793,509,7,137080,113042
5796,514,7,137080,113046
5798,520,7,137092,113043
5801,523,7,137098,113043
5804,521,7,137114,113049
5807,517,7,137082,113053
5809,512,7,137082,113056
5811,508,7,137083,113060
5814,506,7,137127,113060
5816,507,7,137128,113053
5819,519,7,137128,113061
5821,521,7,137133,113067
5824,518,7,137126,113067
5826,516,7,137147,113066
5828,514,7,137147,113062
5831,514,7,137151,113062
5833,510,7,137155,113075
5836,515,7,137155,113069
5838,521,7,137157,113076
5841,524,7,137173,113076
5843,523,7,137181,113077
5847,520,7,137181,113086
5849,515,8,137190,113084
5851,508,7,137182,113084
5854,508,7,137194,113088
5856,512,7,137194,113087
5859,524,7,137194,113091
5861,524,7,137200,113092
5864,521,7,137205,113092
5866,518,7,137216,113090
5868,516,7,137215,113086
5871,517,7,137227,113092
5873,512,7,137241,113101
5876,513,7,137241,113095
5878,519,7,137241,113105
5881,522,7,137245,113111
5883,522,7,137258,113109
5886,515,7,137259,113109
5889,514,7,137259,113120
5891,515,7,137274,113112
5894,512,7,137288,113117
5896,516,7,137289,113114
5899,521,7,137304,113115
5901,525,7,137292,113126
5904,524,7,137284,113121
5906,522,7,137305,113117
5908,518,7,137303,113117
5911,515,7,137302,113125
5913,509,7,137305,113117
5916,511,7,137306,113129
5918,518,7,137317,113122
5921,523,7,137327,113135
5923,519,7,137331,113132
5926,517,7,137342,113128
5928,515,7,137320,113130
5931,514,7,137333,113141
5934,511,7,137344,113137
5936,512,7,137346,113129
5939,518,7,137344,113128
5941,525,7,137348,113141
5944,524,7,137346,113136
5946,522,7,137363,113137
5948,521,7,137362,113143
5951,526,7,137376,113146
5953,531,7,137382,113139
5956,545,7,137376,113147
5958,562,7,137375,113142
5961,582,7,137373,113140
5963,593,7,137382,113147
5966,592,7,137383,113142
5968,577,7,137385,113138
5970,565,7,137384,113147
5974,550,7,137397,113143
5976,538,7,137392,113156
5979,528,7,137405,113151
5981,520,7,137408,113155
5984,510,7,137410,113161
5986,490,7,137425,113161
5988,486,7,137427,113162
5991,485,7,137438,113165
5993,484,7,137447,113169
5996,489,7,137448,113170
5998,504,7,137455,113175
6001,510,7,137453,113169
6003,513,7,137454,113169
6006,510,7,137470,113167
6008,505,7,137466,113173
6010,501,7,137465,113180
6013,498,7,137488,113171
6016,501,7,137493,113172
6019,509,7,137484,113181
6021,514,7,137497,113184
6024,514,7,137503,113185
6026,506,7,137508,113182
6028,503,7,137508,113196
6031,501,7,137515,113199
6033,497,7,137527,113201
6036,504,7,137536,113190
6038,513,7,137534,113208
6041,517,7,137545,113204
6043,515,7,137540,113206
6046,510,7,137552,113209
6048,503,7,137553,113213
6050,502,7,137560,113213
6053,502,7,137566,113218
6055,505,7,137580,113222
6059,515,7,137589,113225
6061,516,7,137595,113227
6064,516,7,137590,113220
6066,513,7,137604,113209
6068,510,7,137603,113234
6071,505,7,137616,113238
6073,500,7,137623,113235
6076,501,7,137629,113243
6078,512,7,137627,113222
6081,521,7,137625,113220
6083,518,7,137646,113241
6086,514,7,137651,113240
6088,508,7,137668,113252
6090,507,7,137666,113254
6093,505,7,137676,113257
6095,508,7,137670,113257
6098,519,7,137674,113262
6100,520,7,137691,113260
6104,519,7,137691,113255
6106,517,7,137705,113261
6108,514,7,137697,113261
6111,510,7,137712,113273
6113,509,7,137713,113259
6116,511,7,137717,113270
6118,518,7,137726,113274
6121,522,7,137729,113274
6123,520,7,137740,113284
6126,517,7,137740,113279
6128,515,7,137743,113285
6130,514,7,137752,113285
6133,510,7,137763,113287
6135,513,7,137764,113287
6138,519,7,137764,113295
6140,526,7,137767,113288
6144,527,7,137776,113288
6146,520,7,137783,113308
6148,517,7,137776,113290
6151,515,7,137788,113294
6153,512,7,137788,113306
6156,516,7,137792,113300
6158,526,7,137780,113314
6161,527,7,137780,113287
6163,527,7,137785,113290
6166,524,7,137782,113290
6168,519,7,137769,113288
6170,516,7,137769,113272
6173,514,7,137726,113263
6175,517,7,137704,113263
6178,523,7,137671,113262
6180,530,7,137625,113232
6183,530,7,137572,113215
6185,522,7,137572,113192
6188,520,7,137522,113169
6191,519,7,137390,113135
6193,515,7,137390,113113
6196,519,7,137233,113080
6198,526,7,137155,113080
6201,531,7,137081,113057
6203,532,7,136979,112998
6206,528,8,136893,112974
6208,521,7,136802,112934
6210,520,8,136709,112934
6213,520,7,136630,112878
6215,521,7,136630,112854
6218,529,7,136551,112829
6220,534,8,136389,112829
6223,533,7,136327,112806
6225,525,7,136327,112762
6227,520,7,136262,112746
6231,517,7,136152,112746
6233,512,7,136112,112721
6236,511,7,136065,112687
6238,517,7,136065,112664
6241,521,7,136019,112659
6243,520,7,135954,112659
6246,513,7,135924,112635
6248,504,7,135924,112622
6250,499,7,135890,112613
6253,495,7,135849,112613
6255,495,7,135814,112601
6258,502,7,135787,112585
6260,505,7,135789,112585
6263,506,7,135779,112564
6265,497,7,135779,112559
6267,495,7,135762,112567
6270,492,7,135740,112555
6273,487,7,135740,112552
6276,491,7,135711,112552
6278,499,7,135683,112547
6281,505,7,135670,112548
6283,504,7,135670,112534
6286,498,7,135710,112534
6288,495,7,135702,112533
6290,493,7,135704,112529
6293,489,7,135704,112532
6295,494,7,135705,112526
6298,500,7,135671,112526
6300,503,7,135681,112527
6303,503,7,135681,112525
6305,500,7,135702,112525
6307,496,7,135702,112522
6310,492,7,135707,112532
6312,490,7,135706,112532
6316,494,7,135733,112526
6318,503,7,135724,112536
6321,513,7,135724,112528
6323,510,7,135737,112536
6326,506,7,135749,112536
6328,502,7,135752,112543
6330,501,7,135777,112543
6333,496,7,135777,112544
6335,501,7,135776,112549
6338,507,7,135798,112549
6340,510,7,135814,112549
6343,512,7,135814,112553
6345,509,7,135825,112556
6347,501,7,135806,112556
6350,501,7,135835,112562
6352,501,7,135835,112568
6355,504,7,135835,112572
6358,510,7,135837,112571
6361,514,7,135844,112571
6363,514,7,135850,112568
6366,511,7,135860,112571
6368,510,7,135861,112570
6370,508,7,135874,112570
6373,505,7,135869,112572
6375,506,7,135878,112573
6378,511,7,135884,112576
6380,516,7,135884,112574
6383,516,7,135895,112579
6385,507,7,135887,112579
6387,507,7,135891,112570
6390,506,7,135889,112580
6392,503,7,135905,112579
6395,503,7,135915,112572
6397,514,7,135914,112578
6401,516,7,135922,112580
6403,516,7,135913,112582
6406,512,7,135924,112586
6408,508,7,135922,112590
6410,506,7,135925,112585
6413,502,7,135935,112585
6415,504,7,135946,112592
6418,509,7,135958,112594
6420,514,7,135972,112600
6423,516,7,135978,112600
6425,509,7,135988,112597
6427,506,7,135995,112603
6430,505,7,136001,112611
6432,503,7,136002,112611
6435,503,7,136022,112611
6437,515,7,136014,112616
6440,518,7,136021,112625
6443,518,7,136031,112613
6446,514,7,136037,112626
6448,507,7,136054,112627
6450,504,7,136052,112624
6453,502,7,136054,112625
6455,503,7,136050,112618
6458,510,7,136056,112621
6460,516,7,136055,112620
6463,516,7,136056,112623
6465,508,7,136049,112626
6467,505,7,136049,112623
6470,504,7,136054,112626
6472,501,7,136054,112616
6475,503,7,136053,112618
6477,511,7,136054,112620
6480,515,7,136043,112621
6482,516,7,136043,112616
6486,512,7,136045,112611
6488,507,7,136035,112607
6490,504,7,136024,112602
6493,501,7,136034,112603
6495,502,7,136026,112611
6498,510,7,136020,112605
6500,516,7,136012,112603
6503,516,7,136014,112596
6505,508,7,136008,112599
6507,504,7,136011,112604
6510,502,7,136004,112596
6512,499,7,136004,112599
6515,500,7,135988,112603
6517,508,7,135990,112603
6520,513,7,135982,112595
6522,515,7,135984,112592
6525,511,7,135980,112595
6528,504,7,135972,112582
6530,500,7,135968,112589
6533,497,7,135964,112593
6535,501,7,135965,112586
6538,507,7,135963,112586
6540,516,7,135967,112588
6543,513,7,135964,112585
6545,508,7,135966,112587
6547,504,7,135961,112578
6550,501,7,135949,112585
6552,498,7,135957,112588
6555,498,7,135962,112584
6557,507,7,135964,112582
6560,511,7,135964,112577
6562,515,7,135964,112580
6565,511,7,135968,112585
6567,505,7,135980,112590
6569,501,7,135991,112584
6573,497,7,135984,112588
6575,501,7,135996,112570
6578,512,7,135992,112580
6580,515,7,136008,112597
6583,516,7,136012,112605
6585,508,7,136025,112602
6587,507,7,136028,112603
6590,506,7,136042,112604
6592,503,7,136041,112609
6595,506,7,136054,112604
6597,511,7,136062,112614
6600,515,7,136062,112617
6602,518,7,136078,112622
6605,515,7,136090,112622
6607,508,7,136109,112646
6609,506,7,136121,112629
6612,503,7,136128,112635
6615,507,7,136146,112652
6618,512,7,136154,112657
6620,517,7,136163,112665
6623,519,7,136177,112665
6625,510,7,136198,112664
6627,508,7,136198,112663
6630,507,7,136211,112664
6632,504,7,136214,112664
6635,507,7,136253,112684
6637,512,7,136259,112679
6640,516,7,136259,112684
6642,517,7,136283,112691
6645,515,7,136304,112691
6647,509,7,136312,112723
6649,506,7,136312,112702
6652,503,7,136341,112707
6654,504,7,136347,112707
6658,509,7,136362,112721
6660,516,7,136382,112724
6663,515,7,136382,112729
6665,512,7,136406,112735
6667,509,7,136422,112735
6670,504,7,136428,112749
6672,500,7,136428,112747
6675,503,7,136446,112758
6677,508,7,136473,112758
6680,514,7,136487,112765
6682,515,7,136496,112765
6685,511,7,136500,112775
6687,503,7,136517,112769
6689,502,7,136522,112769
6692,501,7,136536,112773
6694,502,7,136536,112781
6697,510,7,136550,112782
6700,515,7,136560,112782
6703,517,7,136568,112789
6705,509,7,136568,112797
6707,506,7,136579,112799
6710,503,7,136599,112799
6712,500,7,136612,112804
6715,501,7,136618,112811
6717,506,7,136622,112811
6720,512,7,136631,112814
6722,511,7,136631,112819
6725,507,7,136639,112815
6727,504,8,136649,112819
6729,498,7,136649,112807
6732,497,8,136652,112807
6734,501,7,136653,112820
6737,510,7,136656,112816
6739,513,8,136674,112816
6743,513,7,136686,112821
6745,504,7,136686,112830
6747,502,7,136680,112827
6750,502,7,136691,112827
6752,498,8,136699,112829
6755,501,7,136699,112829
6757,507,7,136699,112826
6760,511,7,136713,112826
6762,511,7,136695,112833
6765,507,7,136689,112835
6767,501,7,136689,112838
6769,497,7,136700,112843
6772,496,7,136739,112843
6774,497,7,136739,112835
6777,507,7,136739,112845
6779,511,7,136747,112845
6782,511,7,136747,112847
6785,507,7,136721,112849
6787,505,7,136752,112849
6790,501,7,136752,112845
6792,499,7,136768,112846
6795,502,7,136745,112846
6797,508,7,136757,112854
6800,517,7,136757,112855
6802,515,7,136774,112852
6805,512,7,136777,112852
6807,506,7,136777,112861
6809,503,7,136777,112861
6812,501,7,136812,112865
6814,504,7,136806,112868
6817,513,7,136806,112868
6819,516,7,136821,112869
6822,517,8,136815,112869
6824,515,7,136823,112872
6827,511,7,136823,112870
6830,506,7,136817,112874
6832,497,7,136831,112874
6835,500,7,136844,112874
6837,507,7,136835,112885
6840,514,7,136835,112886
6842,509,7,136855,112887
6845,504,7,136848,112887
6847,500,7,136860,112889
6849,499,7,136872,112890
6852,498,7,136869,112890
6854,500,7,136879,112896
6857,505,8,136882,112895
6859,509,7,136882,112895
6862,510,7,136889,112891
6864,506,7,136894,112896
6866,499,7,136897,112896
6870,498,7,136909,112908
6872,497,7,136916,112906
6875,497,7,136931,112912
6877,506,7,136942,112914
6880,509,7,136941,112909
6882,509,7,136938,112902
6885,504,7,136940,112916
6887,502,7,136948,112916
6889,500,7,136959,112915
6892,496,7,136956,112920
6894,497,7,136962,112918
6897,502,7,136969,112927
6899,507,7,136977,112928
6902,508,7,136986,112932
6904,504,7,136984,112925
6906,500,7,136991,112933
6909,495,7,136997,112935
6912,493,7,137003,112936
6915,494,7,137018,112946
6917,500,7,137034,112943
6920,506,7,137036,112941
6922,507,7,137039,112946
6925,503,7,137049,112958
6927,502,7,137054,112949
6929,501,7,137057,112957
6932,496,7,137073,112957
6934,498,7,137080,112963
6937,505,7,137089,112969
6939,509,7,137094,112966
6942,509,7,137104,112973
6944,505,7,137105,112972
6946,502,7,137117,112982
6949,501,7,137132,112981
6951,497,7,137131,112982
6955,500,7,137147,112984
6957,505,7,137155,112989
6960,509,7,137158,112999
6962,511,7,137166,112992
6965,508,7,137178,112995
6967,503,7,137167,112994
6969,501,7,137181,112997
6972,498,7,137201,113006
6974,498,7,137217,113015
6977,501,7,137214,113010
6979,510,7,137208,113009
6982,513,7,137220,113009
6984,505,7,137227,113017
6986,502,7,137241,113023
6989,500,7,137256,113018
6991,497,7,137260,113025
6994,497,7,137258,113026
6996,508,7,137268,113033
7000,515,7,137281,113036
7002,521,7,137281,113038
7005,524,7,137302,113045
7007,538,7,137301,113043
7009,546,7,137311,113044
7012,554,7,137315,113044
7014,568,7,137325,113045
7017,582,7,137331,113044
7019,587,7,137348,113050
7022,577,7,137361,113059
7024,562,7,137368,113062
7026,539,7,137373,113070
7029,517,7,137382,113077
7031,496,7,137396,113076
7034,479,7,137405,113085
7036,472,7,137414,113087
7040,474,7,137414,113089
7042,478,7,137434,113099
7045,477,7,137453,113099
7047,477,7,137452,113100
7049,476,7,137467,113101
7052,474,7,137481,113105
7054,479,7,137488,113085
7057,491,7,137500,113093
7059,494,7,137515,113115
7062,497,7,137519,113121
7064,492,7,137525,113124
7066,491,7,137538,113129
7069,491,7,137552,113134
7071,489,7,137556,113144
7074,493,7,137574,113144
7076,499,7,137584,113145
7079,505,7,137584,113151
7081,508,7,137601,113153
7085,505,7,137624,113153
7087,500,7,137626,113154
7089,498,7,137635,113151
7092,496,7,137643,113169
7094,500,7,137665,113175
7097,505,7,137671,113181
7099,511,7,137681,113178
7102,514,7,137694,113192
7104,506,7,137703,113182
7106,504,7,137703,113182
7109,504,7,137716,113191
7111,502,7,137729,113191
7114,505,7,137746,113198
7116,511,7,137744,113194
7119,515,7,137744,113217
7121,518,7,137769,113201
7124,515,7,137780,113201
7127,508,7,137784,113233
7129,505,7,137799,113220
7132,502,7,137819,113227
7134,504,7,137819,113243
7137,512,7,137825,113224
7139,519,7,137836,113230
7142,517,7,137836,113241
7144,513,7,137854,113239
7146,510,7,137858,113239
7149,505,7,137879,113246
7151,501,7,137879,113250
7154,504,7,137882,113253
7156,510,7,137892,113253
7159,516,7,137906,113258
7161,518,7,137904,113256
7164,514,7,137915,113272
7166,507,7,137927,113268
7169,506,7,137934,113268
7172,506,7,137936,113272
7174,506,7,137936,113275
7177,514,7,137950,113274
7179,520,7,137959,113274
7182,522,7,137981,113286
7184,515,7,137968,113284
7186,512,7,137968,113287
7189,509,7,137989,113291
7191,507,7,137998,113291
7194,507,7,138012,113308
7196,515,7,138012,113304
7199,521,7,138011,113305
7201,523,7,138021,113305
7204,519,7,138040,113302
7206,513,7,138032,113309
7208,508,7,138032,113308
7212,506,7,138043,113308
7214,510,7,138040,113310
7217,519,8,138033,113309
7219,523,7,138041,113309
7222,524,7,138032,113300
7224,518,7,138032,113303
7226,515,7,138025,113297
7229,513,7,137993,113278
7231,508,7,137993,113275
7234,511,7,137926,113275
7236,520,7,137861,113261
7239,526,7,137826,113242
7241,527,7,137826,113186
7244,521,7,137680,113161
7246,517,7,137600,113161
7248,515,7,137507,113131
7251,512,7,137507,113061
7254,515,7,137407,113035
7257,520,7,137185,113035
7259,525,7,137081,112993
7262,525,7,137081,112928
7264,522,7,136905,112928
7266,517,7,136816,112901
7269,514,7,136816,112819
7271,511,7,136713,112788
7274,513,7,136478,112788
7276,518,7,136393,112756
7279,525,7,136393,112696
7281,523,7,136346,112681
7284,519,7,136196,112681
7286,515,7,136145,112657
7288,511,8,136077,112640
7291,504,7,136077,112597
7293,506,7,136026,112577
7297,510,7,135928,112577
7299,513,7,135901,112566
7302,510,7,135901,112530
7304,507,7,135846,112530
7306,502,8,135846,112516
7309,499,7,135822,112510
7311,491,7,135790,112510
7314,494,7,135752,112495
7316,501,7,135728,112495
7319,509,7,135728,112479
7321,504,7,135716,112477
7324,500,8,135697,112477
7326,496,7,135683,112468
7328,495,7,135681,112459
7331,495,7,135666,112459
7333,495,7,135666,112453
7336,497,7,135660,112450
7339,508,7,135662,112447
7342,508,7,135651,112451
7344,503,7,135649,112450
7346,500,7,135649,112447
7349,496,8,135658,112445
7351,490,7,135649,112445
7354,493,7,135654,112444
7356,499,7,135661,112453
7359,506,7,135687,112451
7361,507,7,135691,112447
7364,503,7,135703,112453
7366,498,7,135693,112456
7368,496,7,135701,112455
7371,495,7,135710,112460
7373,498,7,135709,112464
7376,502,7,135752,112461
7378,507,7,135752,112471
7382,507,7,135753,112475
7384,506,7,135766,112484
7386,503,7,135775,112480
7389,500,7,135780,112485
7391,495,7,135804,112495
7394,495,7,135813,112497
7396,500,7,135840,112502
7399,506,7,135852,112513
7401,507,7,135859,112510
7404,503,7,135880,112521
7406,502,7,135883,112519
7408,501,7,135893,112522
7411,496,7,135900,112523
7413,497,7,135906,112527
7416,503,7,135923,112537
7418,508,7,135925,112521
7421,510,7,135938,112532
7424,503,7,135938,112534
7426,499,7,135951,112535
7429,498,7,135960,112534
7431,495,7,135974,112537
7434,498,7,135976,112533
7436,503,7,135972,112547
7439,508,7,135976,112545
7441,512,7,135980,112542
7444,508,7,135988,112552
7446,501,7,135986,112547
7448,498,7,135997,112551
7451,496,7,135994,112539
7453,496,7,135996,112547
7456,499,7,136007,112543
7458,507,7,136006,112549
7461,510,7,136011,112549
7463,503,7,136022,112551
7465,499,7,136026,112549
7469,498,7,136041,112560
7471,495,7,136062,112554
7474,495,7,136063,112562
7476,503,7,136071,112567
7479,508,7,136081,112580
7481,510,7,136085,112575
7484,506,7,136097,112578
7486,500,7,136094,112580
7488,496,7,136120,112595
7491,493,7,136126,112594
7493,493,7,136131,112584
7496,499,7,136129,112584
7498,506,7,136143,112584
7501,508,7,136145,112595
7503,500,7,136158,112586
7505,497,7,136156,112602
7508,495,7,136161,112596
7511,491,7,136170,112604
7514,491,7,136166,112598
7516,499,7,136167,112603
7519,503,7,136167,112589
7521,508,7,136168,112600
7524,505,7,136166,112591
7526,498,7,136154,112593
7528,494,7,136165,112600
7531,491,7,136163,112595
7533,494,7,136157,112572
7536,503,7,136151,112565
7538,505,7,136159,112594
7541,507,7,136145,112583
7543,500,7,136148,112585
7545,499,7,136141,112584
7548,498,7,136134,112580
7550,495,7,136127,112577
7554,497,7,136123,112573
7556,502,7,136121,112579
7559,505,7,136113,112578
7561,510,7,136102,112558
7564,506,7,136100,112561
7566,502,7,136086,112558
7568,500,7,136081,112557
7571,495,7,136083,112557
7573,495,7,136072,112551
7576,506,7,136060,112550
7578,509,7,136057,112549
7581,510,7,136057,112560
7583,508,7,136041,112550
7585,504,7,136035,112550
7588,500,7,136037,112554
7590,498,7,136034,112533
7593,498,7,136032,112535
7596,504,7,136020,112529
7599,510,7,136013,112527
7601,510,7,136011,112524
7604,506,7,136011,112523
7606,504,7,136003,112515
7608,503,7,135995,112515
7611,498,7,136016,112531
7613,499,7,136015,112524
7616,504,7,136015,112514
7618,513,7,136004,112523
7621,515,7,136011,112523
7623,508,7,136009,112539
7625,505,7,136009,112523
7628,502,7,136011,112520
7630,499,7,136020,112520
7633,498,7,136018,112531
7635,507,7,136024,112529
7639,511,7,136024,112528
7641,514,7,136045,112535
7644,511,7,136050,112535
7646,505,7,136056,112542
7648,501,7,136056,112539
7651,498,7,136073,112544
7653,498,7,136085,112544
7656,503,7,136097,112551
7658,512,7,136097,112553
7661,512,7,136111,112561
7663,507,7,136116,112569
7665,504,7,136142,112569
7668,500,7,136147,112576
7670,497,8,136162,112576
7673,497,7,136182,112583
7675,506,7,136182,112589
7678,512,7,136188,112592
7681,514,7,136209,112592
7684,511,7,136235,112593
7686,504,7,136234,112606
7688,500,7,136234,112612
7691,498,7,136265,112621
7693,500,7,136285,112621
7696,504,7,136296,112628
7698,513,7,136296,112629
7701,512,7,136324,112638
7703,508,7,136344,112638
7705,504,7,136363,112647
7708,499,7,136377,112647
7710,496,7,136378,112647
7713,495,7,136396,112661
7715,502,7,136396,112665
7718,509,7,136421,112668
7720,512,7,136452,112668
7724,509,7,136469,112682
7726,503,7,136469,112685
7728,500,7,136481,112694
7731,498,7,136503,112694
7733,496,8,136499,112699
7736,500,7,136520,112706
7738,510,8,136520,112716
7741,509,7,136568,112721
7743,506,7,136586,112721
7745,502,7,136595,112721
7748,499,7,136595,112731
7750,496,7,136610,112738
7753,497,7,136592,112738
7755,501,7,136613,112735
7758,510,7,136613,112747
7760,510,8,136658,112747
7763,507,7,136676,112755
7766,501,7,136676,112756
7768,499,7,136680,112756
7771,496,7,136703,112753
7773,496,7,136689,112771
7776,508,7,136689,112764
7778,513,7,136686,112763
7781,513,7,136721,112763
7783,508,7,136747,112774
7785,505,7,136748,112779
7788,500,8,136748,112781
7790,497,7,136754,112788
7793,499,7,136764,112788
7795,503,7,136778,112794
7798,510,7,136778,112793
7800,513,7,136789,112793
7803,506,7,136785,112793
7805,504,8,136803,112801
7808,503,8,136803,112795
7811,498,7,136799,112795
7813,500,7,136806,112801
7816,508,7,136811,112806
7818,514,7,136809,112806
7821,514,7,136821,112806
7823,510,7,136817,112812
7825,508,7,136829,112805
7828,507,7,136831,112815
7830,502,7,136850,112808
7833,502,7,136842,112809
7835,506,7,136842,112816
7838,510,7,136851,112812
7840,512,7,136852,112820
7843,507,7,136859,112820
7845,505,7,136861,112823
7847,506,7,136887,112821
7851,504,7,136887,112826
7853,504,7,136904,112828
7856,508,7,136900,112826
7858,514,7,136891,112828
7861,516,8,136886,112832
7863,513,7,136891,112832
7865,508,7,136893,112831
7868,506,7,136901,112835
7870,502,7,136902,112832
7873,501,7,136911,112838
7875,507,7,136918,112843
7878,514,7,136922,112846
7880,519,7,136925,112847
7883,514,7,136928,112842
7885,510,8,136948,112846
7887,508,7,136946,112846
7890,499,7,136960,112852
7892,503,7,136966,112850
7896,511,7,136956,112853
7898,516,7,136964,112855
7901,518,7,136971,112861
7903,511,7,136975,112857
7905,506,7,136978,112867
7908,504,7,136986,112864
7910,501,7,136991,112862
7913,498,7,137001,112864
7915,506,7,137005,112871
7918,509,7,137011,112875
7920,510,8,137015,112875
7923,506,7,137028,112874
7925,499,7,137041,112878
7927,496,7,137044,112884
7930,493,7,137043,112871
7932,493,7,137049,112890
7936,499,7,137052,112891
7938,505,7,137066,112902
7941,508,7,137069,112895
7943,502,7,137077,112901
7945,499,7,137092,112905
7948,497,7,137105,112909
7950,494,7,137120,112906
7953,493,7,137124,112913
7955,501,7,137127,112915
7958,506,7,137124,112923
7960,510,7,137134,112913
7963,507,7,137143,112920
7965,501,7,137148,112923
7967,497,7,137153,112926
7970,494,7,137166,112931
7972,494,7,137182,112932
7975,500,7,137175,112934
7977,506,7,137181,112930
7981,508,7,137195,112933
7983,500,7,137199,112936
7985,497,7,137206,112949
7988,495,7,137222,112947
7990,492,7,137229,112956
7993,491,7,137232,112952
7995,499,7,137240,112952
7998,505,7,137252,112959
8000,508,7,137262,112967
8003,505,7,137264,112974
8005,499,7,137273,112974
8007,495,7,137287,112979
8010,492,7,137292,112980
8012,494,7,137293,112957
8015,503,7,137302,112964
8017,505,7,137323,112988
8020,508,7,137327,112994
8023,501,7,137331,113002
8025,500,7,137340,112999
8028,499,7,137350,113004
8030,496,7,137360,113008
8033,497,7,137367,113006
8035,501,7,137379,113000
8038,504,7,137379,113013
8040,510,7,137388,112995
8043,507,7,137392,113013
8045,503,7,137404,113012
8047,499,7,137414,113028
8050,495,7,137427,113026
8052,494,7,137427,113014
8055,499,8,137438,113020
8057,509,8,137443,113035
8060,510,8,137456,113034
8062,508,8,137459,113037
8065,505,7,137459,113043
8068,506,7,137471,113038
8070,507,7,137476,113052
8073,511,7,137499,113049
8075,527,7,137494,113049
8078,542,8,137504,113054
8080,565,7,137518,113054
8083,571,7,137518,113054
8085,574,7,137523,113066
8087,573,8,137538,113066
8090,558,8,137550,113072
8092,549,8,137548,113068
8095,544,8,137548,113073
8097,538,8,137572,113074
8100,532,8,137572,113074
8102,504,7,137586,113100
8104,494,8,137589,113083
8108,481,8,137600,113094
8110,476,8,137600,113104
8113,478,8,137610,113102
8115,484,8,137612,113102
8118,492,8,137628,113099
8120,498,8,137632,113103
8123,497,8,137632,113105
8125,498,7,137638,113105
8127,498,8,137650,113105
8130,494,8,137654,113114
8132,494,8,137654,113114
8135,501,8,137669,113114
8137,507,7,137671,113114
8140,510,8,137685,113121
8142,504,8,137688,113131
8144,501,8,137688,113129
8147,499,7,137700,113133
8150,497,7,137705,113133
8153,496,8,137728,113140
8155,503,7,137728,113142
8158,511,8,137725,113145
8160,514,7,137750,113145
8163,512,8,137753,113148
8165,506,7,137763,113145
8167,503,8,137763,113155
8170,500,7,137777,113156
8172,501,7,137784,113156
8175,504,8,137792,113160
8177,514,8,137792,113163
8180,513,8,137813,113174
8182,509,8,137821,113174
8184,506,8,137829,113180
8187,501,7,137829,113175
8189,498,8,137834,113178
8193,499,8,137848,113179
8195,504,7,137848,113187
8198,512,7,137860,113196
8200,516,7,137882,113196
8203,514,8,137889,113196
8205,508,8,137889,113203
8207,505,8,137892,113205
8210,503,8,137894,113205
8212,502,8,137904,113204
8215,505,8,137907,113211
8217,515,8,137907,113212
8220,515,7,137944,113218
8222,512,8,137955,113218
8224,508,8,137963,113221
8227,504,7,137963,113224
8229,500,7,137969,113231
8232,499,8,137989,113231
8235,503,7,137990,113232
8238,513,8,137990,113238
8240,514,8,138003,113238
8243,511,7,138010,113239
8245,505,8,138010,113242
8247,503,7,138020,113245
8250,502,8,138030,113245
8252,501,7,138004,113245
8255,512,7,138004,113253
8257,519,8,138011,113251
8260,520,7,138044,113251
8262,517,8,138050,113259
8264,514,8,138060,113260
8267,512,7,138060,113267
8269,509,8,138065,113259
8272,511,8,138060,113259
8274,515,8,138072,113263
8278,525,8,138072,113270
8280,525,8,138081,113269
8283,523,8,138084,113269
8285,520,8,138084,113264
8287,515,8,138081,113264
8290,514,8,138100,113266
8292,516,8,138088,113265
8295,528,8,138088,113262
8297,531,8,138093,113256
8300,532,8,138085,113256
8302,530,8,138074,113253
8304,528,8,138074,113238
8307,528,8,138050,113238
8309,527,8,138050,113233
8312,523,8,138031,113218
8314,534,8,138022,113210
8317,540,8,137923,113194
8320,542,8,137893,113182
8323,540,8,137893,113135
8325,531,8,137841,113111
8327,530,8,137771,113111
8330,527,8,137710,113087
8332,528,8,137623,113048
8335,533,8,137541,113022
8337,544,8,137443,112984
8340,545,8,137247,112943
8342,540,8,137138,112911
8344,535,8,137138,112839
8347,526,8,137044,112839
8349,524,8,136930,112809
8352,524,8,136823,112770
8354,527,8,136734,112735
8357,530,8,136623,112695
8359,528,8,136523,112655
8363,521,8,136417,112628
8365,514,8,136332,112601
8367,509,8,136246,112568
8370,505,8,136172,112547
8372,501,8,136091,112521
8375,503,7,136033,112505
8377,506,8,135979,112481
8380,506,8,135935,112465
8382,497,8,135886,112443
8384,491,8,135844,112432
8387,487,8,135814,112420
8389,482,8,135780,112416
8392,478,8,135749,112401
8394,485,8,135717,112393
8397,488,8,135692,112384
8399,491,7,135681,112367
8402,487,8,135664,112363
8404,481,8,135646,112361
8407,478,8,135640,112355
8410,475,7,135622,112352
8412,474,7,135603,112338
8415,479,7,135607,112340
8417,485,8,135595,112338
8420,487,7,135587,112334
8422,480,7,135586,112336
8424,476,7,135583,112325
8427,475,7,135587,112329
8429,472,7,135577,112334
8432,472,7,135591,112330
8434,479,7,135597,112328
8437,485,7,135591,112333
8439,490,7,135593,112334
8442,489,7,135607,112334
8444,482,7,135597,112332
8446,478,7,135606,112342
8450,474,7,135628,112337
8452,472,7,135643,112339
8455,475,7,135641,112343
8457,480,7,135657,112354
8460,481,7,135664,112357
8462,475,7,135669,112360
8464,473,7,135690,112364
8467,473,7,135704,112369
8469,472,7,135727,112370
8472,474,7,135734,112379
8474,485,7,135747,112388
8477,492,7,135766,112386
8479,497,7,135792,112394
8482,495,7,135792,112397
8484,490,7,135810,112405
8486,486,7,135835,112409
8489,484,7,135849,112413
8492,485,7,135858,112403
8495,489,7,135880,112403
8497,499,7,135898,112431
8500,498,7,135911,112428
8502,493,7,135931,112441
8504,488,7,135936,112448
8507,485,7,135961,112456
8509,483,7,135970,112455
8512,481,7,135992,112467
8514,489,7,136009,112474
8517,494,7,136009,112472
8519,502,7,136034,112475
8522,500,7,136044,112480
8524,493,7,136064,112485
8526,490,7,136084,112490
8529,487,7,136104,112494
8531,488,7,136105,112483
8535,493,7,136128,112483
8537,504,7,136139,112506
8540,504,7,136162,112516
8542,500,7,136174,112522
8544,495,7,136195,112524
8547,492,7,136217,112528
8549,490,7,136228,112533
8552,489,7,136242,112535
8554,497,7,136258,112544
8557,501,7,136258,112541
8559,507,7,136286,112550
8562,505,7,136302,112550
8564,499,7,136310,112556
8566,497,8,136323,112560
8569,495,7,136328,112578
8571,499,7,136340,112566
8574,503,7,136349,112563
8577,510,7,136343,112564
8580,513,7,136345,112562
8582,507,7,136359,112570
8584,503,7,136359,112566
8587,502,7,136350,112561
8589,500,7,136349,112561
8592,500,7,136353,112560
8594,506,7,136335,112553
8597,511,7,136335,112567
8599,516,7,136318,112559
8602,515,7,136315,112559
8604,508,7,136297,112548
8606,506,8,136297,112529
8609,503,7,136264,112521
8611,502,7,136247,112521
8614,505,7,136245,112517
8616,514,7,136220,112498
8620,515,7,136220,112499
8622,513,7,136180,112485
8624,510,7,136166,112485
8627,505,7,136137,112472
8629,501,7,136137,112465
8632,502,7,136095,112456
8634,507,8,136073,112456
8637,513,7,136065,112450
8639,517,7,136037,112424
8642,514,8,136012,112429
8644,505,7,135996,112423
8646,504,7,135971,112423
8649,502,7,135955,112396
8651,501,7,135955,112396
8654,508,7,135936,112388
8656,515,8,135901,112388
8659,518,7,135882,112380
8662,511,7,135882,112359
8664,506,7,135867,112360
8667,503,7,135845,112360
8669,500,8,135837,112361
8672,498,8,135821,112354
8674,503,8,135821,112349
8677,509,7,135811,112337
8679,513,7,135793,112337
8682,510,7,135793,112341
8684,504,7,135793,112329
8686,502,7,135787,112329
8689,501,7,135783,112329
8691,501,8,135772,112322
8694,504,7,135762,112333
8696,516,7,135762,112330
8699,517,7,135786,112330
8701,514,8,135780,112330
8704,511,7,135791,112328
8707,508,7,135790,112330
8709,506,7,135771,112330
8712,506,7,135771,112326
8714,513,8,135768,112339
8717,521,7,135802,112331
8719,518,8,135802,112326
8722,517,7,135816,112337
8724,516,7,135816,112337
8726,512,7,135816,112333
8729,510,8,135831,112333
8731,507,8,135831,112334
8734,518,7,135831,112338
8736,525,8,135812,112340
8739,526,7,135863,112340
8741,522,7,135868,112343
8743,517,8,135872,112348
8747,512,8,135872,112353
8749,508,8,135884,112355
8752,508,8,135904,112355
8754,511,8,135920,112355
8757,520,8,135920,112357
8759,522,8,135935,112357
8762,516,7,135935,112374
8764,510,7,135945,112379
8766,509,8,135956,112379
8769,508,8,135992,112379
8771,509,8,136005,112390
8774,520,8,136005,112392
8776,525,8,136011,112402
8779,526,8,136030,112402
8781,522,7,136038,112398
8783,518,8,136038,112401
8786,514,8,136038,112406
8788,506,8,136056,112406
8792,508,8,136091,112407
8794,513,8,136088,112421
8797,523,8,136088,112428
8799,521,7,136106,112424
8802,517,8,136106,112424
8804,513,8,136118,112435
8806,512,8,136129,112433
8809,511,8,136142,112437
8811,509,8,136163,112439
8814,514,8,136173,112442
8816,519,8,136173,112449
8819,521,8,136183,112448
8821,519,8,136187,112452
8823,510,8,136197,112452
8826,509,7,136205,112455
8828,509,8,136211,112456
8832,507,8,136230,112462
8834,512,8,136243,112468
8837,516,7,136241,112468
8839,518,8,136236,112467
8842,516,8,136235,112469
8844,510,7,136244,112476
8846,506,7,136247,112479
8849,504,8,136252,112476
8851,502,7,136248,112486
8854,505,7,136252,112482
8856,512,7,136263,112482
8859,514,7,136271,112483
8861,510,7,136261,112484
8863,507,7,136276,112485
8866,504,7,136265,112487
8868,501,7,136271,112483
8871,498,8,136271,112478
8873,502,7,136269,112482
8877,509,7,136276,112485
8879,511,7,136265,112483
8882,509,7,136264,112482
8884,508,8,136267,112480
8886,505,7,136261,112484
8889,502,7,136260,112483
8891,498,8,136264,112478
8894,504,7,136252,112486
8896,510,7,136266,112488
8899,515,7,136271,112489
8901,513,7,136270,112484
8903,507,7,136270,112486
8906,503,7,136271,112485
8908,499,7,136269,112487
8911,498,7,136273,112488
8913,503,7,136268,112492
8916,512,7,136281,112495
8919,517,7,136275,112499
8922,515,7,136278,112493
8924,507,7,136274,112494
8926,504,7,136277,112497
8929,502,7,136277,112498
8931,501,7,136279,112492
8934,504,7,136284,112498
8936,515,7,136278,112500
8939,521,7,136273,112496
8941,515,7,136271,112501
8943,510,7,136270,112505
8946,507,7,136276,112503
8948,504,7,136284,112502
8951,502,7,136281,112499
8953,508,7,136282,112501
8956,513,7,136285,112499
8958,516,7,136290,112506
8962,513,7,136296,112507
8964,505,7,136290,112514
8966,501,7,136291,112515
8969,498,7,136291,112513
8971,499,7,136295,112504
8974,501,7,136300,112504
8976,510,7,136303,112524
8979,509,7,136303,112507
8981,505,7,136294,112515
8983,498,7,136300,112514
8986,494,7,136299,112522
8988,490,7,136305,112519
8991,487,7,136303,112518
8993,493,7,136301,112518
8996,498,7,136301,112516
8998,505,7,136307,112526
9001,503,7,136304,112522
9004,495,7,136318,112525
9006,492,7,136325,112525
9009,489,7,136318,112537
9011,489,7,136322,112504
9014,493,7,136324,112504
9016,504,7,136338,112541
9019,505,7,136336,112538
9021,501,7,136350,112539
9023,495,7,136345,112536
9026,491,7,136351,112544
9028,488,7,136355,112533
9031,486,7,136347,112531
9033,492,7,136349,112537
9036,496,7,136349,112531
9038,502,7,136349,112541
9041,500,7,136351,112544
9043,494,7,136358,112548
9046,491,7,136361,112541
9049,487,7,136353,112543
9051,490,7,136367,112532
9054,495,7,136366,112535
9056,502,7,136380,112547
9059,504,7,136378,112547
9061,501,7,136402,112569
9063,498,7,136406,112560
9066,495,7,136418,112566
9068,492,7,136418,112589
9071,491,7,136436,112573
9073,499,7,136452,112580
9076,502,8,136452,112588
9078,506,7,136465,112591
9081,504,7,136477,112591
9083,497,7,136497,112598
9085,494,8,136503,112599
9089,492,7,136509,112620
9091,494,7,136509,112607
9094,500,7,136521,112612
9096,504,7,136536,112612
9099,508,7,136549,112634
9101,504,7,136556,112624
9103,500,7,136556,112634
9106,498,7,136580,112641
9108,497,7,136587,112641
9111,496,7,136597,112648
9113,500,7,136597,112653
9116,508,7,136609,112663
9118,512,7,136623,112663
9121,511,7,136640,112669
9123,505,7,136645,112666
9125,503,7,136645,112677
9128,505,7,136659,112679
9131,511,7,136670,112679
9134,521,7,136683,112685
9136,550,8,136689,112691
9139,561,7,136699,112694
9141,576,7,136699,112697
9143,579,7,136701,112699
9146,576,7,136708,112697
9148,565,8,136708,112702
9151,553,8,136720,112704
9153,547,7,136732,112704
9156,541,7,136742,112709
9158,524,8,136742,112705
9161,505,7,136755,112713
9163,492,7,136756,112713
9165,484,7,136775,112717
9168,476,8,136771,112722
9170,476,8,136769,112722
9174,480,8,136779,112723
9176,495,7,136779,112732
9179,501,7,136795,112736
9181,503,8,136811,112736
9183,501,8,136820,112739
9186,498,7,136820,112745
9188,494,7,136838,112746
9191,494,7,136861,112746
9193,498,8,136850,112754
9196,503,8,136842,112760
9198,509,7,136842,112759
9201,505,8,136902,112762
9203,502,7,136906,112762
9205,500,8,136913,112762
9208,497,7,136913,112768
9210,497,7,136922,112778
9213,502,7,136902,112778
9216,508,8,136955,112777
9219,511,7,136955,112782
9221,507,8,136964,112790
9223,504,7,136979,112790
9226,501,7,136979,112798
9228,498,7,136997,112801
9231,498,7,136981,112801
9233,502,7,137023,112800
9236,512,8,137023,112812
9238,514,7,137040,112817
9241,511,8,137029,112817
9243,505,8,137029,112821
9245,504,7,137051,112832
9248,503,7,137086,112832
9250,502,7,137100,112828
9253,511,7,137100,112839
9255,515,7,137116,112850
9259,517,8,137115,112850
9261,516,7,137148,112849
9263,513,7,137148,112867
9266,514,8,137168,112867
9268,511,7,137177,112869
9271,508,7,137177,112881
9273,516,7,137205,112877
9276,522,8,137209,112877
9278,524,7,137213,112881
9281,522,8,137213,112891
9283,517,7,137222,112895
9285,510,8,137235,112895
9288,508,7,137267,112896
9290,508,7,137254,112900
9293,516,7,137254,112915
9295,520,7,137276,112908
9298,521,7,137281,112908
9300,519,8,137286,112923
9303,516,7,137298,112916
9306,516,7,137303,112927
9308,513,8,137318,112924
9311,509,7,137327,112927
9313,513,7,137315,112926
9316,520,7,137325,112933
9318,526,7,137342,112937
9321,521,7,137345,112942
9323,517,7,137346,112943
9325,514,8,137346,112940
9328,512,7,137361,112940
9330,508,7,137352,112950
9333,513,8,137376,112944
9335,524,7,137377,112951
9338,526,7,137383,112947
9340,523,7,137381,112946
9342,519,7,137385,112953
9346,516,7,137382,112955
9348,515,7,137385,112948
9351,512,7,137389,112955
9353,519,8,137384,112959
9356,524,7,137375,112952
9358,528,7,137375,112940
9361,528,7,137369,112939
9363,521,7,137350,112930
9365,520,7,137330,112924
9368,518,7,137300,112900
9370,516,7,137265,112891
9373,518,7,137227,112869
9375,526,7,137179,112855
9378,531,7,137118,112840
9380,530,7,137055,112807
9382,526,7,136985,112784
9385,523,7,136897,112737
9388,521,7,136790,112710
9391,517,7,136689,112667
9393,521,7,136587,112632
9396,528,7,136474,112590
9398,531,7,136361,112550
9401,527,7,136252,112518
9403,525,7,136145,112472
9405,522,7,136046,112442
9408,519,7,135948,112403
9410,515,7,135875,112376
9413,518,7,135788,112353
9415,524,7,135730,112333
9418,525,7,135666,112315
9420,523,7,135609,112294
9422,517,7,135569,112273
9425,509,7,135518,112257
9427,503,7,135482,112239
9431,499,7,135451,112235
9433,502,7,135429,112223
9436,508,7,135386,112206
9438,511,7,135358,112193
9441,508,7,135336,112189
9443,497,8,135314,112174
9445,494,7,135294,112178
9448,490,7,135280,112173
9450,488,7,135259,112165
9453,492,7,135239,112153
9455,499,7,135228,112152
9458,503,7,135228,112145
9460,502,7,135217,112143
9462,498,7,135202,112141
9465,493,7,135193,112134
9467,488,7,135182,112134
9470,486,7,135183,112132
9473,494,7,135174,112118
9476,505,7,135170,112106
9478,506,7,135182,112137
9481,504,7,135162,112135
9483,496,7,135169,112130
9485,497,7,135178,112130
9488,496,7,135181,112132
9490,494,7,135183,112130
9493,501,7,135185,112129
9495,506,7,135204,112138
9498,510,7,135210,112141
9500,509,7,135217,112129
9502,505,7,135223,112150
9505,501,7,135231,112148
9507,498,7,135257,112160
9510,495,7,135264,112165
9512,502,7,135279,112159
9516,513,7,135296,112165
9518,516,7,135314,112178
9521,515,7,135313,112191
9523,507,7,135338,112195
9525,506,7,135354,112203
9528,504,8,135381,112211
9530,502,7,135396,112214
9533,511,7,135407,112225
9535,515,7,135430,112229
9538,518,7,135430,112245
9540,517,7,135453,112255
9542,514,7,135475,112255
9545,509,7,135499,112266
9547,507,7,135517,112256
9550,505,7,135526,112272
9552,509,7,135542,112275
9555,516,7,135558,112285
9558,521,7,135580,112290
9561,519,8,135580,112301
9563,516,7,135609,112310
9565,514,7,135616,112310
9568,508,7,135641,112321
9570,507,7,135646,112320
9573,511,7,135646,112346
9575,520,7,135675,112330
9578,524,7,135688,112330
9580,520,7,135701,112357
9582,516,7,135701,112354
9585,513,7,135730,112355
9587,510,7,135745,112355
9590,508,7,135761,112366
9592,514,7,135781,112374
9595,519,7,135781,112378
9597,524,7,135808,112380
9601,524,7,135823,112380
9603,516,7,135836,112394
9605,512,7,135836,112405
9608,509,7,135881,112405
9610,508,8,135892,112405
9613,510,7,135921,112418
9615,519,7,135932,112425
9618,521,8,135946,112439
9620,517,7,135946,112439
9622,514,7,135960,112446
9625,512,7,135994,112450
9627,507,7,135994,112454
9630,506,7,136012,112452
9632,511,7,136024,112452
9635,517,7,136038,112456
9637,522,7,136043,112467
9640,520,7,136049,112469
9643,511,7,136054,112462
9645,509,8,136061,112462
9648,507,8,136068,112472
9650,505,7,136068,112474
9653,509,7,136072,112474
9655,521,8,136072,112475
9658,522,7,136069,112478
9660,519,8,136061,112478
9662,516,7,136076,112468
9665,510,8,136062,112463
9667,508,8,136039,112463
9670,505,8,136039,112462
9672,510,7,136042,112465
9675,516,8,136038,112465
9677,519,8,136038,112461
9680,515,7,136032,112455
9682,512,8,136014,112455
9684,509,8,135980,112453
9688,504,8,135980,112445
9690,503,8,135962,112442
9693,509,8,135978,112446
9695,514,8,135957,112446
9698,515,8,135957,112427
9700,513,8,135949,112426
9702,512,8,135929,112424
9705,510,8,135912,112424
9707,507,8,135901,112422
9710,505,8,135901,112412
9712,512,7,135893,112404
9715,517,8,135831,112404
9717,519,8,135859,112397
9720,514,8,135859,112386
9722,512,8,135829,112386
9724,509,8,135806,112395
9728,505,8,135806,112388
9730,504,8,135802,112382
9733,509,8,135826,112382
9735,515,8,135812,112383
9738,520,7,135812,112384
9740,514,8,135812,112380
9742,511,8,135808,112380
9745,510,7,135818,112384
9747,510,8,135819,112390
9750,511,8,135819,112378
9752,517,8,135817,112384
9755,522,7,135815,112384
9757,524,8,135825,112390
9760,522,7,135825,112390
9762,517,7,135825,112399
9764,509,7,135838,112399
9767,508,8,135870,112397
9769,508,8,135857,112402
9773,516,7,135857,112412
9775,520,7,135874,112407
9778,521,8,135869,112407
9780,520,7,135875,112412
9782,517,8,135891,112410
9785,516,8,135902,112419
9787,510,7,135922,112420
9790,508,8,135937,112434
9792,511,8,135937,112444
9795,515,7,135952,112449
9797,519,8,135966,112457
9800,517,7,135977,112457
9802,514,8,135990,112454
9804,513,8,136006,112460
9807,511,8,136033,112467
9809,508,7,136044,112473
9812,511,8,136057,112471
9815,517,8,136072,112482
9818,519,8,136078,112490
9820,521,7,136094,112496
9822,516,7,136112,112506
9825,512,8,136128,112501
9827,506,8,136135,112511
9830,502,7,136158,112523
9832,506,8,136182,112524
9835,512,7,136202,112530
9837,521,8,136219,112537
9840,517,7,136239,112553
9842,513,7,136259,112552
9844,510,8,136280,112561
9847,502,7,136303,112568
9849,504,8,136317,112574
9852,510,7,136336,112579
9854,516,7,136347,112585
9858,520,8,136380,112599
9860,514,8,136384,112600
9862,511,8,136408,112606
9865,509,7,136426,112608
9867,507,8,136444,112618
9870,504,7,136474,112625
9872,509,8,136476,112634
9875,514,8,136499,112644
9877,520,7,136526,112647
9880,519,7,136550,112652
9882,512,7,136562,112650
9884,508,7,136573,112664
9887,506,7,136594,112660
9889,504,7,136599,112670
9892,507,7,136615,112677
9894,514,7,136626,112685
9897,518,7,136647,112687
9900,513,7,136664,112688
9902,509,7,136677,112697
9905,507,7,136702,112701
9907,505,7,136709,112712
9910,503,7,136727,112718
9912,509,7,136740,112719
9915,515,7,136749,112723
9917,520,7,136751,112727
9920,519,7,136772,112729
9922,511,7,136765,112732
9924,507,7,136780,112741
9927,505,7,136800,112732
9929,504,7,136810,112743
9932,507,7,136817,112741
9934,514,7,136823,112739
9937,517,7,136838,112746
9939,513,7,136840,112746
9942,508,7,136846,112764
9945,505,7,136862,112754
9947,502,7,136879,112763
9950,500,7,136875,112766
9952,504,7,136882,112771
9955,512,7,136894,112772
9957,517,7,136898,112773
9960,516,7,136909,112780
9962,508,8,136907,112781
9964,504,7,136923,112790
9967,501,7,136920,112789
9969,501,7,136932,112767
9972,508,7,136940,112770
9974,511,7,136958,112796
9977,516,7,136948,112800
9979,511,7,136961,112796
9981,510,7,136967,112794
9985,509,8,136959,112801
9987,506,7,136973,112804
9990,504,7,136972,112802
9992,507,7,136987,112807
9995,512,7,136995,112815
9997,521,8,136994,112796
10000,518,7,137001,112810
10002,514,8,136998,112810
10004,512,7,137003,112819
10007,509,7,137011,112818
10009,507,8,137019,112806
10012,514,7,137009,112812
10014,519,8,137028,112820
10017,522,7,137028,112819
10019,522,7,137024,112828
10021,518,7,137028,112828
10024,511,7,137047,112836
10027,508,7,137036,112822
10030,506,8,137049,112826
10032,508,7,137049,112832
10035,515,7,137057,112831
10037,520,8,137062,112831
10040,521,7,137064,112834
10042,513,8,137065,112837
10044,511,8,137065,112831
10047,508,8,137075,112834
10049,505,8,137087,112834
10052,505,8,137087,112835
10054,512,7,137087,112847
10057,516,8,137089,112847
10059,512,8,137101,112869
10061,508,8,137101,112848
10064,505,7,137109,112848
10066,502,8,137110,112848
10070,499,7,137125,112853
10072,504,8,137127,112853
10075,509,7,137127,112858
10077,516,8,137137,112860
10080,515,8,137146,112860
10082,507,7,137140,112862
10084,504,7,137140,112868
10087,501,7,137153,112863
10089,500,8,137165,112863
10092,502,7,137164,112871
10094,511,7,137164,112872
10097,514,7,137168,112881
10099,512,8,137180,112879
10101,505,8,137182,112892
10104,501,7,137200,112888
10106,500,8,137201,112888
10109,498,7,137200,112890
10112,502,8,137200,112893
10115,510,7,137214,112897
10117,515,7,137229,112897
10120,514,7,137239,112894
10122,507,7,137246,112902
10124,504,7,137246,112914
10127,501,7,137255,112909
10129,501,7,137262,112909
10132,506,8,137256,112912
10134,511,7,137280,112912
10137,515,7,137277,112914
10139,512,8,137277,112922
10141,508,7,137285,112924
10144,507,8,137302,112926
10146,500,7,137302,112922
10149,499,8,137317,112922
10151,504,8,137319,112927
10155,510,7,137326,112937
10157,517,7,137326,112935
10160,512,8,137351,112937
10162,508,7,137355,112937
10164,505,8,137374,112951
10167,500,8,137379,112954
10169,498,7,137373,112954
10172,503,8,137373,112963
10174,510,7,137374,112965
10177,513,7,137415,112965
10179,510,8,137415,112976
10181,505,8,137424,112969
10184,504,8,137435,112969
10186,502,8,137416,112978
10189,499,8,137405,112973
10191,502,8,137463,112973
10194,520,8,137463,112986
10196,531,8,137471,112988
10200,538,8,137446,112988
10202,547,8,137446,112988
10204,558,8,137465,113002
10207,564,8,137506,113002
10209,565,8,137520,112998
10212,565,8,137520,113009
10214,561,8,137521,113014
10217,554,8,137539,113014
10219,544,8,137561,113015
10221,521,8,137561,113025
10224,513,8,137561,113025
10226,500,8,137581,113033
10229,482,8,137581,113039
10231,483,8,137593,113042
10234,489,8,137606,113042
10236,492,8,137611,113042
10240,493,8,137611,113051
10242,488,8,137624,113058
10244,489,8,137636,113058
10247,491,8,137653,113058
10249,491,7,137677,113070
10252,497,8,137677,113078
10254,504,8,137695,113075
10257,507,7,137691,113075
10259,505,8,137709,113077
10261,501,8,137709,113089
10264,497,7,137715,113090
10266,492,8,137725,113090
10269,492,7,137748,113094
10271,497,8,137755,113103
10274,507,7,137755,113110
10276,507,7,137772,113110
10279,506,8,137781,113112
10281,502,7,137789,113118
10284,499,7,137794,113118
10287,498,7,137808,113123
10289,496,8,137815,113129
10292,499,8,137841,113128
10294,504,8,137841,113137
10297,507,7,137853,113137
10299,506,8,137853,113142
10301,502,8,137891,113153
10304,500,7,137881,113164
10306,497,8,137893,113163
10309,494,8,137922,113174
10311,499,7,137929,113171
10314,504,8,137936,113173
10316,508,7,137939,113176
10319,507,7,137945,113182
10321,504,7,137958,113188
10323,502,7,137959,113188
10327,499,7,137973,113197
10329,494,7,137992,113201
10332,497,7,137995,113202
10334,504,7,138004,113200
10337,508,8,138022,113211
10339,506,7,138031,113209
10341,502,7,138035,113215
10344,500,7,138033,113211
10346,498,7,138047,113221
10349,494,7,138063,113220
10351,500,7,138074,113226
10354,506,7,138074,113238
10356,510,7,138081,113230
10359,509,7,138084,113230
10361,502,7,138079,113237
10363,500,7,138086,113241
10366,500,7,138112,113247
10369,497,7,138119,113239
10372,499,7,138129,113248
10374,507,7,138141,113249
10377,511,7,138135,113256
10379,511,7,138134,113249
10381,507,7,138147,113244
10384,502,7,138146,113258
10386,498,7,138156,113256
10389,496,7,138156,113260
10391,498,7,138163,113260
10394,506,7,138165,113265
10396,512,7,138173,113264
10399,510,7,138177,113266
10401,502,7,138176,113271
10403,500,7,138178,113274
10406,497,7,138192,113271
10408,494,7,138192,113271
10412,494,7,138202,113267
10414,505,7,138181,113268
10417,512,7,138189,113262
10419,508,7,138187,113255
10421,503,7,138179,113268
10424,501,7,138165,113264
10426,499,7,138169,113252
10429,497,7,138144,113252
10431,501,7,138136,113240
10434,508,7,138114,113232
10436,513,7,138075,113215
10439,513,7,138046,113205
10441,506,7,137992,113183
10443,501,7,137936,113160
10446,498,7,137865,113128
10448,499,7,137771,113077
10451,504,7,137684,113042
10454,507,7,137591,113024
10457,512,7,137460,112974
10459,508,7,137350,112938
10461,506,7,137232,112891
10464,505,7,137119,112853
10466,503,7,136988,112814
10469,498,7,136876,112771
10471,500,7,136768,112730
10474,504,7,136654,112690
10476,511,7,136539,112625
10479,508,7,136426,112611
10481,502,7,136323,112575
10483,495,7,136212,112539
10486,489,7,136118,112510
10488,483,7,136027,112459
10491,486,7,135960,112437
10493,489,7,135899,112434
10497,492,7,135830,112410
10499,491,7,135780,112376
10501,485,7,135724,112373
10504,478,7,135685,112360
10506,475,7,135652,112342
10509,473,7,135617,112336
10511,479,7,135587,112317
10514,484,7,135560,112312
10516,487,7,135536,112300
10519,487,7,135518,112290
10521,478,7,135505,112289
10523,476,7,135505,112277
10526,475,7,135470,112267
10528,473,7,135456,112270
10531,474,7,135456,112262
10533,482,7,135437,112256
10536,486,7,135418,112256
10539,484,7,135425,112266
10541,481,7,135415,112254
10544,479,7,135418,112248
10546,476,7,135418,112252
10549,476,7,135411,112245
10551,482,7,135412,112260
10554,487,7,135412,112240
10556,492,7,135418,112248
10559,491,7,135419,112248
10561,484,7,135433,112256
10563,481,7,135432,112255
10566,479,7,135447,112256
10568,478,7,135447,112261
10571,483,7,135463,112270
10573,488,7,135474,112270
10576,493,7,135494,112271
10578,490,7,135507,112270
10580,486,7,135507,112282
10584,484,7,135539,112290
10586,483,7,135558,112290
10589,480,7,135580,112294
10591,481,7,135580,112304
10594,489,7,135591,112315
10596,494,7,135628,112315
10599,494,7,135659,112319
10601,487,7,135675,112329
10603,482,7,135675,112344
10606,480,7,135711,112342
10608,479,7,135726,112342
10611,480,7,135758,112349
10613,490,7,135758,112363
10616,494,7,135806,112379
10618,492,7,135818,112379
10620,489,7,135851,112387
10624,481,7,135851,112398
10626,478,7,135871,112399
10629,478,7,135901,112412
10631,481,7,135901,112420
10634,489,7,135934,112430
10636,494,7,135971,112430
10639,493,7,136001,112440
10641,486,7,136001,112447
10643,484,7,136017,112449
10646,482,7,136040,112449
10648,479,7,136060,112463
10651,479,7,136075,112471
10653,489,7,136075,112475
10656,492,7,136123,112480
10658,490,7,136143,112480
10660,486,7,136169,112483
10663,480,7,136169,112495
10665,479,7,136186,112502
10669,479,7,136215,112502
10671,481,7,136244,112513
10674,490,7,136244,112528
10676,491,7,136275,112528
10679,490,7,136298,112537
10681,484,7,136298,112541
10683,481,7,136308,112542
10686,480,7,136339,112542
10688,477,7,136311,112543
10691,482,7,136311,112556
10693,489,7,136320,112556
10696,492,7,136371,112556
10698,492,7,136378,112556
10700,488,7,136374,112565
10703,483,7,136374,112557
10705,479,7,136383,112556
10708,478,7,136375,112556
10711,479,7,136379,112554
10714,489,7,136379,112543
10716,492,7,136368,112543
10719,490,7,136368,112537
10721,484,7,136354,112538
10723,482,7,136339,112538
10726,482,7,136318,112534
10728,482,7,136304,112535
10731,487,7,136304,112507
10733,494,7,136287,112502
10736,498,7,136233,112502
10738,495,7,136214,112493
10740,492,7,136214,112481
10743,488,7,136191,112465
10745,482,7,136172,112465
10748,481,7,136118,112460
10750,486,7,136093,112453
10754,497,7,136093,112434
10756,498,7,136072,112423
10759,496,7,136042,112423
10761,490,7,136020,112421
10763,489,7,135995,112410
10766,490,7,135966,112401
10768,487,7,135950,112390
10771,491,7,135909,112386
10773,495,7,135909,112372
10776,498,7,135880,112362
10778,499,7,135863,112352
10780,494,7,135842,112352
10783,492,7,135832,112346
10785,493,7,135820,112347
10788,490,7,135818,112342
10790,493,7,135810,112338
10793,498,7,135791,112327
10796,502,7,135780,112327
10799,501,7,135765,112328
10801,499,7,135758,112332
10803,495,7,135756,112326
10806,491,7,135749,112332
10808,487,7,135753,112323
10811,488,7,135755,112326
10813,499,7,135756,112329
10816,502,7,135761,112333
10818,502,7,135756,112323
10820,498,7,135756,112330
10823,493,7,135766,112328
10825,490,7,135771,112335
10828,488,7,135781,112336
10830,489,7,135780,112331
10833,499,7,135805,112346
10835,502,7,135796,112339
10839,500,7,135807,112347
10841,498,7,135826,112352
10843,495,7,135843,112357
10846,491,7,135846,112354
10848,489,7,135864,112361
10851,492,7,135878,112372
10853,498,7,135888,112371
10856,503,7,135899,112384
10858,503,7,135915,112389
10860,498,7,135933,112394
10863,495,7,135962,112402
10865,493,7,135989,112407
10868,491,7,135996,112420
10870,494,7,136025,112427
10873,500,7,136036,112436
10875,506,7,136054,112436
10878,506,7,136079,112449
10881,501,7,136095,112462
10883,498,7,136116,112459
10886,496,7,136141,112462
10888,493,7,136166,112471
10891,492,7,136180,112473
10893,502,7,136191,112479
10896,508,7,136215,112489
10898,506,7,136236,112498
10900,501,7,136267,112511
10903,499,7,136287,112514
10905,497,7,136308,112517
10908,494,7,136324,112527
10910,497,7,136346,112537
10913,503,7,136369,112546
10915,510,7,136388,112551
10918,510,7,136407,112558
10920,504,7,136421,112563
10923,500,7,136440,112578
10926,498,7,136457,112571
10928,499,7,136472,112578
10931,502,7,136493,112582
10933,505,7,136506,112589
10936,510,7,136523,112603
10938,506,7,136537,112607
10940,504,7,136556,112610
10943,502,7,136575,112621
10945,500,7,136581,112621
10948,496,7,136593,112633
10950,498,7,136620,112636
10953,502,7,136624,112637
10955,513,7,136641,112624
10958,511,7,136654,112652
10960,506,7,136671,112656
10962,502,7,136680,112658
10966,499,7,136687,112661
10968,496,7,136698,112668
10971,496,7,136705,112669
10973,504,7,136724,112674
10976,507,7,136731,112680
10978,509,7,136740,112682
10980,506,7,136756,112688
10983,503,7,136774,112695
10985,501,7,136778,112686
10988,498,7,136791,112690
10990,502,7,136800,112701
10993,508,7,136805,112701
10995,513,7,136815,112711
10998,513,7,136824,112711
11000,505,7,136849,112723
11002,503,7,136844,112713
11005,501,7,136853,112718
11008,499,7,136864,112731
11011,500,7,136874,112734
11013,507,7,136883,112737
11016,512,7,136886,112741
11018,509,7,136892,112730
11020,506,7,136892,112735
11023,504,7,136910,112735
11025,503,7,136907,112735
11028,498,7,136926,112735
11030,501,7,136924,112736
11033,506,7,136924,112732
11035,513,7,136931,112742
11038,515,7,136945,112742
11040,507,7,136963,112768
11042,505,7,136963,112747
11045,502,7,136963,112752
11047,499,7,136970,112752
11051,500,7,136974,112767
11053,509,7,136982,112761
11056,513,7,136982,112757
11058,514,7,136988,112763
11060,512,7,136992,112763
11063,508,7,136992,112773
11065,504,7,136992,112770
11068,501,7,136998,112768
11070,504,7,137003,112768
11073,509,7,137024,112770
11075,517,7,137018,112774
11078,516,7,137022,112780
11080,507,7,137036,112791
11082,505,7,137041,112791
11085,503,7,137035,112784
11087,499,7,137035,112797
11090,503,7,137043,112796
11092,509,7,137056,112796
11096,515,7,137065,112795
11098,513,7,137071,112798
11100,508,7,137071,112806
11103,504,7,137073,112798
11105,503,7,137082,112798
11108,498,7,137078,112809
11110,499,7,137078,112815
11113,507,7,137088,112808
11115,512,7,137096,112808
