TimeStamp,ECG Data,GSR Data,PPG_Red Data,PPG_IR Data
3,0,0,0,0
6,511,46,0,0
8,508,46,57564,57568
11,500,46,73904,73926
13,486,47,90287,90310
15,462,47,106679,106711
18,435,47,123115,116555
20,385,47,127117,116524
23,365,47,127059,116504
25,345,47,126999,116477
28,326,48,126936,116452
30,296,48,126873,116426
33,286,48,126794,116399
35,276,48,126705,116370
37,270,48,126633,116342
40,263,48,126559,116314
43,257,48,126482,116285
46,255,48,126427,116270
48,252,48,126347,116225
51,250,48,126271,116207
53,247,49,126200,116183
55,246,49,126154,116156
58,247,49,126103,116143
60,248,49,126071,116130
63,251,49,126024,116119
65,253,49,125995,116108
68,255,49,125949,116097
70,256,49,125917,116077
73,257,49,125894,116082
75,261,49,125870,116069
77,264,49,125849,116062
80,267,49,125829,116058
82,271,49,125811,116051
86,276,49,125804,116039
88,277,49,125797,116035
91,279,49,125783,116032
93,281,49,125779,116028
95,284,49,125779,116031
98,291,49,125762,116023
100,295,49,125771,116032
103,299,49,125778,116032
105,302,49,125787,116036
108,305,49,125797,116042
110,308,49,125790,116043
113,310,49,125799,116050
115,312,49,125807,116043
117,314,49,125825,116046
120,321,49,125832,116055
122,324,49,125853,116063
125,326,49,125870,116063
128,328,49,125889,116072
131,328,49,125891,116071
133,329,49,125925,116083
135,330,49,125943,116097
138,332,49,125964,116102
140,334,49,125988,116115
143,338,49,126000,116123
145,342,49,126020,116129
148,344,49,126055,116129
150,346,49,126071,116138
153,348,49,126084,116139
155,352,49,126104,116148
157,355,49,126129,116165
160,358,49,126147,116166
162,363,49,126167,116149
165,369,49,126180,116175
167,372,49,126199,116178
171,375,49,126205,116185
173,380,49,126219,116190
175,384,49,126238,116192
178,387,49,126246,116195
180,392,49,126245,116199
183,401,49,126255,116198
185,405,49,126267,116203
188,408,49,126264,116201
190,410,49,126275,116210
193,414,49,126269,116181
195,419,49,126280,116209
197,423,49,126278,116200
200,427,49,126283,116204
202,432,49,126290,116206
205,436,49,126298,116212
207,442,49,126294,116211
210,444,49,126306,116208
212,448,49,126313,116211
215,450,49,126313,116219
218,453,49,126325,116220
220,459,49,126330,116220
223,463,49,126352,116225
225,467,49,126355,116235
228,469,49,126376,116234
230,471,49,126391,116239
233,472,49,126391,116243
235,473,49,126406,116248
237,475,49,126417,116248
240,480,49,126436,116260
242,483,49,126450,116260
245,485,49,126450,116263
247,486,49,126478,116266
250,487,49,126482,116266
252,488,49,126497,116278
254,488,49,126497,116280
258,492,49,126510,116287
260,495,49,126510,116283
263,499,49,126523,116284
265,503,49,126534,116285
268,504,49,126534,116288
270,505,49,126539,116296
273,506,49,126548,116296
275,508,49,126554,116295
277,509,49,126554,116287
280,512,50,126550,116295
282,514,49,126553,116295
285,517,49,126562,116304
287,521,49,126553,116293
290,522,49,126550,116303
292,523,50,126550,116294
294,524,50,126552,116293
297,526,49,126548,116284
300,527,50,126545,116284
303,533,49,126540,116286
305,535,50,126540,116291
308,537,49,126543,116292
310,538,50,126538,116292
313,538,50,126540,116290
315,540,50,126542,116287
317,542,50,126542,116279
320,545,50,126530,116281
322,548,49,126532,116281
325,550,50,126523,116283
327,552,50,126523,116276
330,553,49,126514,116276
332,554,49,126511,116276
334,555,50,126513,116280
337,557,50,126513,116279
339,559,50,126521,116280
343,561,50,126517,116280
345,562,50,126519,116278
348,562,49,126520,116279
350,561,50,126520,116283
353,560,50,126521,116280
355,560,50,126531,116280
357,559,50,126541,116287
360,561,50,126542,116290
362,561,50,126536,116290
365,564,50,126536,116286
367,564,50,126548,116292
370,564,50,126563,116292
372,563,50,126563,116298
374,564,50,126576,116304
377,565,50,126580,116304
379,567,50,126567,116304
382,571,50,126600,116309
385,572,50,126610,116309
388,573,50,126610,116316
390,573,50,126620,116324
393,574,50,126624,116324
395,575,50,126624,116326
397,576,50,126646,116329
400,579,50,126657,116329
402,581,50,126663,116333
405,584,50,126663,116339
407,584,50,126677,116343
410,584,50,126683,116343
412,584,50,126712,116345
414,584,50,126712,116351
417,584,50,126725,116351
419,586,50,126736,116357
422,589,50,126736,116365
424,591,50,126753,116366
428,591,50,126767,116366
430,591,51,126782,116374
433,589,50,126782,116388
435,586,50,126796,116381
437,584,50,126800,116381
440,582,50,126825,116385
442,582,50,126833,116396
445,586,51,126833,116401
447,592,50,126854,116406
450,598,51,126857,116406
452,606,50,126879,116410
454,615,51,126879,116416
457,637,51,126881,116417
459,647,51,126893,116417
462,659,51,126897,116420
464,673,51,126904,116425
467,686,51,126912,116432
470,717,51,126932,116433
473,727,51,126944,116443
475,726,51,126948,116446
477,713,51,126948,116452
480,676,51,126966,116443
482,658,51,126967,116443
485,644,51,126977,116458
487,630,51,126975,116451
490,621,51,126987,116460
492,613,51,126992,116460
494,607,51,127001,116459
497,604,51,127009,116465
499,605,51,127009,116470
502,606,51,127019,116475
504,608,51,127034,116474
507,608,51,127038,116478
509,606,51,127047,116469
513,605,51,127061,116477
515,605,51,127062,116476
517,605,51,127061,116491
520,607,52,127060,116488
522,610,52,127070,116491
525,611,52,127082,116501
527,612,52,127085,116494
530,612,52,127090,116495
532,612,52,127097,116501
534,613,52,127125,116506
537,617,52,127127,116508
539,620,52,127139,116507
542,624,52,127127,116512
544,629,52,127149,116519
547,633,52,127155,116508
549,640,52,127161,116519
552,646,52,127168,116528
555,652,52,127169,116522
557,658,53,127178,116531
560,673,53,127180,116530
562,682,53,127190,116536
565,690,53,127204,116536
567,697,53,127207,116541
570,705,53,127210,116542
572,716,53,127208,116546
574,726,54,127223,116543
577,744,54,127217,116544
579,752,54,127226,116540
582,759,54,127231,116547
584,767,54,127241,116549
587,774,54,127241,116553
589,779,55,127244,116560
592,782,55,127245,116551
594,785,55,127255,116559
596,786,55,127266,116563
600,789,55,127267,116562
602,791,55,127281,116566
605,791,56,127275,116576
607,791,56,127285,116569
610,790,56,127285,116575
612,788,56,127296,116576
614,787,56,127301,116578
617,786,56,127299,116578
619,786,56,127300,116586
622,786,57,127315,116586
624,785,57,127319,116583
627,783,57,127318,116587
629,779,57,127311,116584
632,777,57,127324,116583
634,775,57,127315,116586
636,773,57,127314,116579
640,772,57,127282,116568
642,771,58,127266,116557
645,769,58,127239,116546
647,767,58,127191,116532
650,764,58,127139,116513
652,762,58,127080,116488
654,758,58,127011,116458
657,753,59,126944,116429
659,751,59,126879,116398
662,748,59,126793,116379
664,744,59,126716,116349
667,739,59,126633,116320
669,729,59,126561,116291
672,725,59,126481,116265
674,720,59,126420,116242
676,714,59,126353,116212
679,707,59,126286,116197
681,704,59,126227,116171
685,700,59,126157,116146
687,691,59,126114,116127
690,685,60,126068,116111
692,678,60,126030,116101
694,670,60,125993,116091
697,666,60,125977,116091
699,662,60,125941,116078
702,656,60,125919,116065
704,653,60,125907,116059
707,649,60,125907,116055
709,644,60,125869,116047
712,641,60,125853,116047
714,636,60,125853,116048
716,634,60,125847,116047
719,632,60,125841,116041
721,631,60,125830,116038
724,629,60,125845,116040
727,624,60,125843,116044
730,621,61,125843,116048
732,618,60,125866,116053
734,617,61,125878,116053
737,614,61,125884,116069
739,613,61,125901,116065
742,612,61,125915,116077
744,610,61,125915,116075
747,607,61,125959,116086
749,605,61,125967,116098
752,603,61,125967,116103
754,602,61,126021,116111
756,602,61,126036,116111
759,603,61,126066,116127
761,603,61,126066,116138
764,602,61,126093,116146
766,600,61,126132,116146
770,598,61,126158,116149
772,593,61,126185,116168
774,590,61,126185,116178
777,588,61,126227,116190
779,587,61,126256,116190
782,586,61,126283,116203
784,583,61,126283,116205
787,579,62,126305,116217
789,577,61,126340,116217
792,574,62,126369,116224
794,570,62,126385,116240
796,568,62,126385,116251
799,567,62,126421,116244
801,567,62,126430,116244
804,567,62,126454,116258
806,565,62,126454,116270
809,564,62,126482,116271
812,563,62,126502,116271
814,563,62,126521,116278
817,566,62,126525,116277
819,568,62,126531,116277
822,571,62,126549,116294
824,576,62,126549,116303
827,580,62,126568,116301
829,585,62,126590,116301
832,593,63,126604,116307
834,616,63,126604,116312
836,635,63,126626,116323
839,650,63,126642,116323
841,666,63,126673,116321
844,679,63,126676,116325
846,703,64,126676,116332
849,716,64,126701,116329
851,724,64,126709,116329
854,731,64,126725,116336
857,744,65,126725,116349
859,751,65,126738,116353
862,755,65,126764,116353
864,757,65,126783,116359
867,760,65,126783,116363
869,761,66,126804,116363
872,762,66,126807,116369
874,762,66,126807,116377
876,762,66,126830,116383
879,762,66,126845,116383
881,761,66,126849,116390
884,758,67,126849,116391
886,754,67,126857,116397
889,752,67,126862,116397
891,748,67,126877,116392
893,745,67,126865,116407
897,740,68,126865,116402
899,736,68,126867,116405
902,733,68,126875,116405
904,729,68,126877,116405
907,720,68,126877,116411
909,714,68,126872,116409
912,709,68,126869,116409
914,704,69,126866,116404
916,700,69,126869,116407
919,691,69,126869,116395
921,686,69,126870,116401
924,683,69,126861,116401
926,678,69,126860,116405
929,673,69,126860,116405
931,664,69,126861,116404
933,660,69,126850,116404
936,657,69,126851,116402
939,654,70,126848,116403
942,650,70,126855,116407
944,644,70,126848,116400
947,640,70,126849,116399
949,636,70,126840,116409
952,632,70,126840,116394
954,626,70,126852,116394
956,623,70,126841,116398
959,620,70,126832,116395
961,618,70,126841,116393
964,616,70,126838,116394
966,611,70,126850,116391
969,608,71,126842,116397
971,606,71,126845,116402
973,604,71,126840,116400
976,601,71,126849,116403
978,596,71,126849,116406
982,593,71,126844,116404
984,589,71,126855,116398
987,585,71,126857,116401
989,577,71,126870,116410
992,573,71,126870,116409
994,569,71,126869,116408
996,566,71,126881,116413
999,563,71,126874,116412
1001,557,71,126873,116411
1004,553,71,126878,116423
1006,548,71,126898,116417
1009,542,71,126902,116420
1011,537,72,126914,116422
1013,533,72,126907,116420
1016,530,71,126910,116419
1018,528,72,126918,116429
1021,527,72,126925,116429
1024,526,72,126932,116435
1027,523,72,126933,116431
1029,518,72,126945,116443
1032,516,72,126957,116445
1034,514,72,126965,116439
1036,512,72,126974,116451
1039,510,72,126991,116457
1041,509,72,127000,116458
1044,507,72,127005,116464
1046,506,72,127021,116461
1049,503,72,127021,116469
1051,501,72,127033,116473
1053,499,72,127034,116476
1056,498,72,127049,116491
1058,498,72,127059,116496
1061,497,72,127079,116481
1063,496,72,127092,116492
1067,493,72,127101,116502
1069,486,72,127114,116497
1072,480,73,127113,116498
1074,476,73,127134,116515
1076,474,73,127152,116514
1079,476,73,127155,116513
1081,483,73,127168,116519
1084,490,73,127182,116522
1086,498,73,127191,116519
1089,509,73,127188,116533
1091,523,73,127202,116535
1093,537,73,127214,116534
1096,563,73,127224,116545
1098,578,73,127238,116551
1101,595,73,127242,116547
1103,619,73,127242,116552
1106,633,73,127242,116549
1108,620,73,127256,116551
1112,595,73,127273,116556
1114,565,73,127274,116556
1116,538,73,127273,116571
1119,512,73,127280,116563
1121,485,73,127291,116571
1124,475,73,127297,116564
1126,466,73,127302,116577
1129,460,74,127306,116577
1131,458,73,127316,116580
1133,455,73,127308,116579
1136,450,74,127321,116584
1138,448,74,127332,116584
1141,446,74,127329,116590
1143,444,73,127343,116588
1146,443,74,127351,116588
1148,439,74,127360,116592
1152,438,74,127372,116599
1154,437,74,127369,116595
1156,436,74,127371,116587
1159,436,74,127382,116598
1161,436,74,127382,116595
1164,436,74,127382,116606
1166,435,74,127387,116607
1169,434,74,127394,116607
1171,435,74,127404,116613
1173,435,74,127409,116608
1176,436,74,127414,116608
1178,437,74,127422,116607
1181,437,74,127424,116616
1183,437,74,127432,116618
1186,437,74,127430,116620
1188,436,74,127437,116616
1191,436,74,127437,116618
1193,435,74,127443,116621
1196,436,74,127446,116619
1199,436,74,127462,116625
1201,436,74,127462,116633
1204,436,74,127468,116633
1206,436,74,127467,116630
1209,435,74,127467,116635
1211,434,74,127470,116634
1213,434,74,127470,116634
1216,435,74,127479,116631
1218,435,74,127478,116639
1221,435,74,127484,116630
1223,435,74,127484,116637
1226,434,74,127483,116641
1228,433,74,127482,116647
1231,433,74,127482,116642
1233,433,74,127494,116649
1235,434,74,127499,116649
1239,434,74,127500,116651
1241,434,74,127500,116657
1244,433,74,127512,116654
1246,433,74,127517,116654
1249,432,74,127528,116662
1251,431,74,127527,116660
1253,431,74,127528,116660
1256,431,75,127538,116657
1258,432,75,127538,116668
1261,433,75,127553,116664
1263,434,75,127546,116664
1266,435,75,127550,116660
1268,434,75,127550,116663
1271,434,74,127552,116657
1273,434,75,127539,116651
1275,434,74,127539,116652
1278,436,75,127490,116634
1281,437,75,127456,116634
1284,437,75,127412,116621
1286,437,75,127412,116575
1289,438,75,127300,116559
1291,438,75,127229,116559
1293,438,75,127163,116527
1296,438,75,127082,116466
1298,438,75,127005,116466
1301,439,75,127005,116408
1303,440,75,126924,116385
1306,440,75,126769,116385
1308,439,75,126769,116325
1311,438,75,126693,116301
1313,438,75,126539,116301
1315,438,75,126498,116281
1318,439,75,126437,116241
1320,439,75,126388,116241
1324,438,75,126388,116195
1326,437,75,126326,116190
1329,436,75,126232,116190
1331,435,75,126232,116162
1333,435,75,126200,116151
1336,435,75,126140,116151
1338,436,75,126119,116144
1341,437,75,126119,116130
1343,437,75,126085,116130
1346,438,75,126085,116125
1348,437,75,126074,116119
1351,437,75,126053,116119
1353,436,75,126053,116126
1355,436,75,126059,116122
1358,437,75,126058,116125
1360,437,75,126058,116124
1363,437,75,126068,116133
1366,436,75,126068,116141
1369,435,75,126079,116141
1371,435,75,126114,116142
1373,435,75,126114,116157
1376,435,75,126144,116157
1378,435,75,126162,116167
1381,436,75,126162,116175
1383,435,75,126184,116188
1386,435,75,126218,116188
1388,433,75,126258,116197
1391,433,75,126258,116219
1393,433,75,126315,116219
1395,434,75,126315,116241
1398,435,75,126350,116248
1551,444,75,127016,116465
1553,446,75,127008,116461
1546,444,75,127012,116469
1548,444,75,127012,116468
1551,444,75,127016,116465
1553,446,75,127008,116461
1555,447,75,126998,116468
1546,444,75,127012,116469
1548,444,75,127012,116468
1551,444,75,127016,116465
1553,446,75,127008,116461
1555,447,75,126998,116468
1558,447,75,127000,116461
1560,448,75,126995,116456
1563,449,75,126990,116461
1565,449,75,126988,116455
1568,449,75,126973,116454
1570,449,75,126965,116451
1572,450,75,126973,116445
1575,450,75,126964,116445
1577,451,75,126960,116455
1581,451,75,126961,116445
1583,450,75,126954,116446
1586,449,75,126940,116446
1588,447,75,126937,116440
1591,445,75,126931,116422
1593,442,75,126932,116440
1595,441,75,126934,116439
1598,440,75,126926,116440
1600,440,75,126931,116440
1603,439,75,126926,116442
1605,436,75,126922,116435
1608,434,75,126925,116432
1610,433,75,126921,116436
1612,433,75,126923,116433
1615,433,75,126917,116439
1617,432,75,126918,116438
1620,432,74,126929,116446
1623,432,75,126926,116441
1626,431,75,126943,116447
1628,431,74,126935,116450
1631,431,75,126948,116450
1633,432,75,126955,116453
1635,432,74,126955,116454
1638,433,74,126971,116459
1640,434,74,126973,116458
1643,434,74,126984,116464
1645,434,74,126995,116455
1648,433,74,126995,116463
1650,432,74,127000,116472
1652,432,74,127011,116472
1655,433,74,127023,116474
1657,433,74,127023,116479
1660,433,74,127040,116476
1662,433,74,127043,116478
1666,433,74,127056,116489
1668,428,74,127066,116482
1671,424,74,127066,116493
1673,419,74,127069,116492
1675,417,74,127080,116492
1678,418,74,127094,116508
1680,422,74,127092,116506
1683,427,74,127092,116497
1685,437,74,127112,116504
1688,447,74,127118,116504
1690,471,74,127132,116506
1692,483,74,127132,116516
1695,499,74,127141,116515
1697,513,74,127150,116515
1700,532,74,127165,116528
1702,573,74,127169,116529
1705,590,74,127169,116528
1708,599,74,127181,116540
1711,591,74,127185,116540
1713,545,74,127194,116540
1715,522,74,127194,116543
1718,494,74,127205,116541
1720,476,74,127208,116541
1723,461,74,127229,116548
1725,439,74,127233,116555
1728,434,74,127237,116563
1730,428,74,127237,116558
1732,425,74,127242,116557
1735,424,74,127248,116564
1737,423,74,127268,116564
1740,421,74,127267,116561
1742,419,74,127267,116573
1745,416,74,127274,116576
1747,415,74,127285,116576
1751,414,73,127300,116573
1753,414,73,127300,116581
1755,415,73,127293,116586
1758,417,73,127304,116587
1760,418,73,127304,116588
1763,419,73,127318,116584
1765,419,73,127320,116584
1768,419,73,127332,116590
1770,419,73,127332,116595
1772,420,73,127331,116597
1775,420,73,127345,116597
1777,421,73,127354,116595
1780,424,73,127354,116598
1782,425,73,127354,116598
1785,426,73,127358,116607
1787,427,73,127358,116606
1790,427,73,127373,116603
1793,427,73,127376,116603
1795,428,73,127373,116600
1798,432,73,127373,116604
1800,434,73,127385,116612
1803,434,73,127379,116612
1805,434,73,127390,116611
1808,434,73,127390,116613
1810,434,73,127396,116613
1812,434,73,127391,116620
1815,436,73,127391,116611
1817,438,73,127404,116624
1820,439,73,127409,116624
1822,440,72,127405,116622
1825,440,72,127405,116626
1827,440,72,127410,116631
1830,441,72,127409,116631
1832,442,72,127409,116626
1835,443,72,127423,116640
1838,443,72,127422,116640
1840,444,72,127422,116635
1843,444,73,127432,116634
1845,444,72,127428,116635
1848,444,72,127435,116635
1850,444,72,127452,116640
1852,444,72,127452,116647
1855,444,72,127459,116647
1857,446,72,127459,116644
1860,447,72,127459,116639
1862,448,72,127462,116645
1865,448,72,127455,116645
1867,448,72,127459,116648
1870,448,72,127459,116637
1872,448,72,127438,116637
1874,448,72,127438,116625
1878,450,72,127426,116616
1880,451,72,127408,116605
1883,450,72,127368,116582
1885,449,72,127328,116566
1888,448,72,127289,116566
1890,447,72,127227,116553
1892,447,72,127171,116520
1895,448,72,127101,116496
1897,450,72,127025,116469
1900,450,72,126879,116439
1902,450,71,126879,116389
1905,450,71,126803,116389
1907,448,71,126714,116359
1910,446,71,126654,116332
1912,445,71,126564,116301
1914,444,71,126501,116284
1917,445,71,126453,116262
1920,446,71,126391,116239
1923,446,71,126322,116219
1925,446,71,126256,116193
1928,445,71,126209,116183
1930,444,71,126160,116165
1932,444,71,126127,116151
1935,445,71,126085,116136
1937,445,71,126065,116132
1940,444,71,126027,116130
1942,443,71,126011,116112
1945,441,70,125995,116114
1947,439,71,125976,116105
1950,438,70,125962,116101
1952,437,70,125947,116094
1954,437,70,125934,116097
1957,437,70,125931,116101
1959,435,70,125922,116091
1963,433,70,125916,116096
1965,432,70,125931,116093
1968,431,70,125936,116095
1970,431,70,125939,116101
1972,430,70,125949,116106
1975,430,70,125956,116108
1977,429,70,125977,116111
1980,429,70,125981,116114
1982,429,70,126003,116125
1985,428,69,126009,116130
1987,427,70,126021,116133
1990,426,69,126037,116137
1992,425,69,126069,116142
1994,425,69,126088,116153
1997,425,70,126112,116164
1999,427,69,126142,116176
2002,428,69,126158,116179
2004,427,69,126173,116189
2008,426,69,126199,116185
2010,426,69,126216,116198
2012,426,69,126240,116207
2015,428,69,126256,116217
2017,428,69,126272,116233
2020,428,69,126305,116231
2022,428,69,126325,116238
2025,427,68,126345,116245
2027,425,68,126358,116245
2030,424,68,126373,116255
2032,424,68,126390,116266
2034,424,68,126411,116263
2037,424,68,126406,116267
2039,424,68,126429,116273
2042,423,68,126443,116277
2044,422,68,126456,116277
2048,421,68,126464,116280
2050,420,68,126468,116286
2052,419,68,126492,116292
2055,418,68,126490,116291
2057,419,67,126502,116304
2060,418,67,126506,116296
2062,418,67,126510,116301
2065,416,67,126519,116306
2067,415,67,126532,116309
2070,414,67,126539,116309
2072,414,67,126549,116313
2074,414,67,126553,116314
2077,415,67,126564,116322
2079,416,67,126582,116335
2082,417,67,126592,116333
2084,415,67,126591,116342
2087,414,66,126607,116335
2089,414,66,126614,116346
2092,415,66,126626,116342
2095,416,66,126644,116354
2097,417,66,126647,116354
2100,418,66,126659,116360
2102,419,66,126668,116348
2105,419,66,126681,116358
2107,418,66,126686,116365
2110,418,66,126700,116363
2112,417,66,126710,116372
2114,416,66,126709,116368
2117,416,66,126723,116370
2119,413,66,126721,116375
2122,411,65,126721,116371
2124,406,65,126732,116375
2127,401,65,126742,116375
2129,388,65,126747,116382
2131,383,65,126751,116383
2135,370,65,126750,116379
2137,363,64,126750,116375
2140,355,64,126750,116377
2142,343,64,126750,116376
2145,336,64,126750,116377
2147,326,64,126750,116377
2150,320,64,126748,116377
2152,309,64,126755,116377
2154,306,63,126744,116373
2157,303,63,126744,116373
2159,301,63,126744,116368
2162,298,63,126738,116373
2164,297,63,126724,116365
2167,297,62,126724,116369
2169,298,62,126722,116368
2171,300,62,126719,116368
2174,307,62,126715,116365
2177,311,62,126715,116360
2180,316,62,126707,116359
2182,321,62,126694,116359
2185,324,62,126697,116355
2187,328,61,126695,116351
2190,329,61,126678,116354
2192,332,61,126675,116343
2194,333,61,126660,116343
2197,337,61,126671,116353
2199,338,61,126671,116338
2202,339,60,126663,116343
2204,339,61,126656,116343
2207,338,60,126667,116341
2209,337,60,126656,116342
2211,336,60,126656,116344
2214,336,60,126656,116342
2216,337,60,126655,116342
2220,338,60,126660,116340
2222,338,60,126660,116350
2225,338,59,126659,116345
2227,338,59,126673,116345
2230,338,59,126683,116355
2232,340,59,126683,116355
2234,343,59,126688,116355
2237,346,59,126688,116355
2239,349,59,126710,116359
2242,351,59,126711,116365
2244,353,58,126711,116366
2247,354,58,126721,116371
2249,356,58,126730,116371
2251,357,58,126745,116367
2254,361,58,126754,116378
2256,363,58,126751,116378
2259,368,58,126751,116381
2262,371,58,126769,116382
2265,373,58,126781,116382
2267,376,58,126781,116395
2270,378,57,126796,116400
2272,380,58,126809,116400
2274,382,57,126826,116407
2277,388,57,126828,116407
2279,389,57,126833,116407
2282,388,57,126833,116403
2284,386,57,126843,116413
2287,386,57,126855,116413
2289,390,57,126855,116418
2291,398,56,126865,116426
2294,406,56,126880,116426
2296,426,56,126880,116420
2299,442,56,126882,116431
2301,459,56,126896,116426
2305,470,56,126894,116426
2307,481,56,126929,116434
2310,506,56,126929,116444
2312,519,56,126930,116444
2314,539,56,126934,116447
2317,568,56,126934,116448
2319,570,56,126946,116455
2322,560,56,126965,116455
2324,539,56,126964,116454
2327,502,56,126964,116456
2329,482,55,126976,116457
2331,472,55,126971,116457
2334,465,56,126983,116465
2336,463,56,126995,116463
2339,463,55,126995,116467
2341,464,55,127004,116467
2344,464,55,126999,116467
2347,464,55,127018,116470
2350,465,55,127018,116472
2352,467,55,127031,116478
2354,470,55,127028,116478
2357,473,55,127036,116483
2359,477,55,127043,116480
2362,480,55,127042,116484
2364,485,55,127050,116489
2367,487,55,127054,116487
2369,489,55,127067,116490
2371,491,55,127067,116494
2374,494,55,127071,116494
2376,500,55,127060,116481
2379,506,55,127078,116496
2381,512,55,127091,116496
2384,514,55,127090,116486
2386,515,55,127089,116495
2390,517,55,127090,116502
2392,519,55,127094,116506
2394,523,55,127100,116507
2397,526,55,127101,116513
2399,530,55,127110,116504
2402,532,54,127117,116514
2404,535,54,127117,116511
2407,536,55,127125,116511
2409,538,54,127123,116511
2411,539,54,127129,116516
2414,542,54,127136,116519
2416,546,54,127137,116521
2419,549,54,127141,116524
2421,553,54,127143,116522
2424,553,54,127145,116530
2426,554,54,127153,116526
2429,555,54,127159,116525
2432,559,54,127170,116525
2434,561,54,127178,116524
2437,564,54,127174,116530
2439,566,54,127181,116532
2442,567,54,127191,116539
2444,568,54,127187,116539
2447,568,54,127189,116542
2449,568,54,127199,116543
2451,568,54,127200,116543
2454,569,54,127204,116540
2456,572,54,127216,116541
2459,574,54,127218,116554
2461,576,54,127224,116551
2464,576,54,127228,116551
2466,576,54,127230,116557
2469,575,54,127240,116558
2471,575,54,127232,116560
2473,576,54,127235,116561
2477,577,54,127232,116545
2479,579,54,127229,116547
2482,581,54,127201,116538
2484,580,54,127173,116530
2487,579,54,127160,116519
2489,578,54,127123,116503
2491,577,54,127081,116492
2494,577,54,127020,116463
2496,577,54,126966,116444
2499,580,54,126899,116419
2501,579,54,126825,116397
2504,579,54,126751,116360
2506,578,54,126677,116329
2509,577,54,126597,116306
2511,576,54,126511,116276
2513,577,54,126438,116253
2516,578,54,126372,116229
2519,579,54,126309,116206
2522,579,54,126236,116184
2524,578,54,126162,116162
2527,577,54,126107,116131
2529,576,54,126062,116115
2531,574,54,126006,116102
2534,572,54,125964,116087
2536,573,54,125934,116074
2539,573,54,125896,116071
2541,573,54,125858,116045
2544,573,54,125830,116041
2546,572,54,125798,116035
2549,572,54,125787,116027
2551,571,54,125764,116012
2553,571,54,125737,116006
2556,571,54,125727,116006
2558,572,54,125719,116000
2562,572,54,125703,116005
2564,569,54,125705,115990
2567,569,53,125693,115996
2569,567,53,125685,115989
2571,566,54,125700,115999
2574,565,54,125695,115997
2576,565,54,125697,115996
2579,565,54,125709,115995
2581,564,53,125707,115993
2584,564,53,125715,116000
2586,561,53,125735,116009
2589,560,54,125735,116011
2591,559,53,125753,116012
2593,559,53,125766,116012
2596,559,53,125777,116023
2598,559,53,125789,116025
2601,559,53,125789,116035
2604,558,53,125829,116036
2607,557,53,125863,116036
2609,556,53,125884,116056
2611,556,53,125901,116065
2614,557,53,125923,116069
2616,558,53,125923,116079
2619,560,53,125955,116087
2621,561,53,125968,116086
2624,561,53,125968,116101
2626,562,53,126006,116098
2629,562,53,126024,116098
2631,563,53,126044,116115
2633,564,53,126056,116115
2636,569,53,126074,116125
2638,572,53,126074,116124
2641,574,53,126089,116138
2643,575,53,126106,116138
2647,575,53,126118,116142
2649,576,53,126125,116143
2651,577,53,126125,116147
2654,580,53,126141,116151
2656,583,53,126145,116151
2659,587,53,126144,116145
2661,588,53,126144,116150
2664,588,53,126159,116148
2666,588,53,126149,116148
2669,588,53,126169,116152
2671,589,53,126163,116150
2673,590,53,126163,116148
2676,591,53,126163,116148
2678,593,53,126170,116148
2681,592,53,126178,116155
2683,591,53,126178,116156
2686,589,53,126187,116161
2689,588,53,126197,116161
2691,588,53,126207,116170
2694,588,53,126208,116166
2696,589,53,126208,116169
2699,589,53,126240,116177
2701,588,53,126238,116177
2704,586,53,126253,116182
2706,582,53,126253,116187
2709,579,53,126266,116189
2711,577,53,126296,116189
2713,575,53,126321,116202
2716,573,53,126317,116204
2718,573,53,126335,116204
2721,572,53,126335,116210
2723,569,53,126342,116212
2726,567,53,126365,116212
2728,565,53,126365,116221
2731,563,53,126383,116225
2734,563,53,126393,116225
2736,563,53,126398,116231
2739,564,53,126411,116240
2741,563,53,126416,116240
2744,562,53,126416,116238
2746,561,53,126415,116243
2749,561,53,126422,116243
2751,561,53,126422,116235
2753,562,53,126431,116238
2756,563,53,126437,116238
2758,565,53,126433,116242
2761,567,53,126433,116245
2763,567,53,126433,116245
2766,566,53,126433,116240
2768,566,53,126401,116243
2770,567,53,126417,116243
2774,568,53,126417,116235
2776,571,53,126428,116234
2779,573,53,126413,116234
2781,574,53,126414,116244
2784,575,53,126414,116234
2786,575,53,126416,116232
2789,576,53,126410,116232
2791,576,53,126400,116224
2793,577,53,126391,116234
2796,578,53,126391,116223
2798,580,53,126392,116228
2801,580,53,126380,116228
2803,580,53,126389,116230
2806,581,53,126389,116227
2808,581,53,126391,116220
2810,581,53,126388,116220
2813,580,53,126383,116228
2816,580,53,126382,116224
2819,581,53,126381,116218
2821,580,53,126389,116224
2824,579,53,126392,116233
2826,578,53,126388,116236
2829,576,53,126388,116222
2831,571,53,126406,116237
2833,570,53,126403,116237
2836,571,53,126411,116238
2838,572,53,126408,116241
2841,572,53,126422,116235
2843,569,53,126428,116243
2846,566,53,126440,116246
2848,564,53,126448,116252
2850,563,53,126448,116249
2853,562,53,126450,116249
2855,562,53,126451,116250
2859,563,53,126471,116262
2861,563,52,126482,116260
2864,561,52,126485,116261
2866,560,53,126490,116263
2869,558,53,126494,116270
2871,557,52,126498,116271
2873,555,53,126508,116270
2876,555,52,126520,116275
2878,556,53,126529,116277
2881,555,53,126553,116289
2883,552,52,126546,116290
2886,551,52,126558,116288
2888,550,52,126573,116282
2890,549,52,126571,116290
2893,548,52,126575,116297
2895,548,52,126590,116296
2898,548,52,126589,116310
2900,547,53,126605,116314
2904,546,52,126619,116312
2906,544,52,126626,116314
2909,540,52,126642,116325
2911,532,52,126646,116324
2913,530,52,126661,116329
2916,529,52,126666,116327
2918,531,52,126670,116336
2921,537,52,126686,116333
2923,545,52,126694,116340
2926,554,52,126699,116347
2928,572,52,126709,116347
2930,581,52,126710,116345
2933,593,52,126724,116349
2935,605,52,126743,116357
2938,622,52,126750,116353
2940,652,52,126751,116358
2944,666,52,126763,116364
2946,673,52,126771,116360
2949,667,52,126768,116369
2951,630,52,126765,116371
2953,611,52,126783,116372
2956,594,52,126791,116369
2958,577,52,126804,116375
2961,559,52,126799,116382
2963,552,52,126807,116377
2966,545,53,126814,116390
2968,539,52,126816,116383
2970,536,52,126828,116390
2973,534,52,126822,116388
2975,533,52,126835,116398
2978,532,52,126828,116396
2980,531,52,126840,116404
2983,530,52,126843,116396
2985,528,52,126851,116399
2989,527,52,126859,116393
2991,525,52,126867,116406
2993,525,52,126870,116405
2996,527,52,126871,116403
2998,528,52,126881,116410
3001,528,52,126873,116414
3003,526,52,126887,116416
3006,524,52,126894,116418
3008,522,52,126902,116430
3010,521,52,126904,116422
3013,520,52,126908,116415
3015,520,52,126922,116436
3018,520,52,126922,116431
3020,520,52,126933,116429
3023,520,52,126939,116437
3025,519,52,126940,116435
3028,519,52,126943,116437
3031,518,52,126945,116439
3033,519,52,126959,116439
3036,519,52,126963,116450
3038,521,52,126958,116443
3041,521,52,126966,116438
3043,520,52,126986,116448
3046,520,52,126986,116451
3048,519,52,126990,116446
3050,518,52,126995,116446
3053,520,52,127001,116457
3055,522,52,127001,116449
3058,524,52,127001,116456
3060,525,52,127010,116459
3063,526,52,127006,116458
3065,524,52,127025,116458
3068,523,52,127025,116465
3070,522,52,127027,116469
3073,522,52,127023,116469
3076,524,52,127047,116474
3078,526,52,127043,116462
3081,526,52,127043,116476
3083,526,52,127046,116473
3086,525,52,127054,116473
3088,523,52,127069,116481
3090,523,52,127070,116486
3093,523,52,127080,116484
3095,524,52,127080,116479
3098,526,52,127078,116482
3100,527,52,127076,116484
3103,526,52,127076,116488
3105,525,52,127083,116485
3108,525,52,127077,116485
3110,527,52,127058,116463
3112,528,52,127058,116456
3116,532,52,127007,116451
3118,534,52,126973,116451
3121,536,52,126931,116438
3123,538,52,126885,116390
3126,538,52,126820,116375
3128,539,52,126820,116350
3130,540,52,126754,116323
3133,542,52,126612,116301
3135,543,52,126534,116301
3138,549,52,126461,116238
3140,551,52,126461,116213
3143,553,52,126378,116191
3145,554,52,126244,116191
3148,554,52,126194,116167
3150,555,52,126119,116116
3152,556,52,126119,116101
3155,558,52,125985,116076
3158,559,52,125939,116076
3161,560,52,125887,116040
3163,559,52,125887,116023
3166,558,52,125850,116012
3168,557,52,125776,116012
3170,556,52,125748,116010
3173,556,52,125748,115980
3175,557,52,125714,115982
3178,558,52,125673,115982
3180,559,52,125660,115974
3183,558,52,125636,115975
3185,556,52,125636,115961
3188,554,52,125623,115955
3190,553,52,125606,115955
3192,552,52,125622,115953
3195,553,52,125614,115951
3197,553,52,125615,115951
3201,553,52,125615,115955
3203,551,52,125619,115956
3206,551,52,125638,115956
3208,551,52,125638,115963
3210,551,52,125647,115967
3213,552,52,125669,115967
3215,554,52,125684,115970
3218,559,52,125702,115981
3220,560,52,125719,115981
3223,565,52,125719,115999
3225,568,52,125749,116008
3228,571,52,125786,116008
3230,576,52,125786,116018
3232,582,52,125815,116031
3235,586,52,125849,116031
3237,591,53,125878,116043
3240,598,53,125878,116055
3243,600,52,125896,116069
3246,601,53,125921,116069
3248,603,53,125968,116075
3250,608,53,125968,116089
3253,611,53,126008,116089
3255,614,53,126023,116104
3258,620,53,126023,116110
3260,621,53,126041,116104
3263,621,53,126074,116104
3265,620,53,126094,116115
3268,620,53,126094,116136
3270,619,53,126117,116142
3272,620,53,126124,116142
3275,620,53,126153,116136
3277,621,53,126170,116158
3280,620,53,126170,116148
3282,619,54,126183,116148
3286,618,54,126191,116149
3288,617,54,126205,116161
3290,616,54,126205,116163
3293,616,54,126220,116167
3295,617,54,126224,116167
3298,618,54,126245,116174
3300,619,54,126229,116167
3303,619,54,126252,116171
3305,619,54,126261,116184
3308,619,54,126283,116188
3310,619,54,126295,116191
3312,619,54,126295,116199
3315,619,54,126308,116199
3317,621,55,126313,116201
3320,621,54,126340,116203
3322,620,54,126335,116203
3325,619,54,126349,116209
3328,616,55,126368,116212
3330,615,55,126381,116220
3333,614,55,126387,116233
3335,615,55,126403,116230
3338,615,55,126418,116236
3340,615,55,126421,116240
3343,613,55,126432,116242
3345,612,55,126453,116252
3348,610,55,126466,116258
3350,606,55,126473,116258
3352,605,55,126484,116258
3355,605,55,126490,116265
3357,604,55,126496,116267
3360,603,55,126515,116266
3362,599,55,126504,116275
3365,597,55,126506,116272
3367,595,55,126523,116276
3369,593,55,126532,116274
3373,591,55,126539,116281
3375,591,55,126544,116284
3378,590,56,126539,116279
3380,589,55,126544,116278
3383,587,56,126538,116275
3385,583,56,126537,116277
3388,582,56,126544,116286
3390,582,56,126551,116277
3392,582,56,126553,116283
3395,584,56,126548,116285
3397,586,56,126564,116289
3400,588,56,126549,116288
3402,589,56,126563,116288
3405,591,56,126554,116286
3407,593,56,126550,116285
3409,596,56,126552,116292
3412,603,56,126554,116289
3415,606,56,126552,116291
3418,610,56,126554,116286
3420,613,56,126556,116287
3423,616,57,126559,116295
3425,622,57,126558,116282
3428,628,57,126551,116274
3430,636,57,126546,116285
3432,646,57,126552,116283
3435,658,57,126541,116284
3437,670,57,126546,116278
3440,680,57,126544,116283
3442,692,58,126542,116285
3445,697,58,126553,116290
3447,701,58,126551,116284
3449,706,58,126550,116294
3452,714,58,126550,116291
3454,716,58,126551,116294
3458,718,59,126556,116294
3460,719,59,126559,116293
3463,718,59,126555,116289
3465,715,59,126557,116301
3468,713,59,126576,116299
3470,710,59,126580,116308
3472,707,59,126589,116310
3475,704,59,126595,116313
3477,700,59,126600,116311
3480,696,60,126600,116310
3482,689,60,126607,116323
3485,686,60,126621,116321
3487,679,60,126637,116327
3489,675,60,126646,116333
3492,671,60,126657,116336
3494,668,60,126643,116336
3497,664,60,126655,116341
3500,663,61,126671,116339
3503,660,61,126681,116347
3505,657,61,126684,116351
3508,654,61,126697,116352
3510,650,61,126706,116362
3512,649,61,126720,116357
3515,647,61,126736,116362
3517,645,61,126740,116360
3520,640,61,126751,116369
3522,636,61,126757,116362
3525,633,62,126757,116377
3527,629,61,126775,116381
3529,627,62,126784,116381
3532,623,62,126799,116386
3534,621,62,126803,116387
3537,620,62,126822,116392
3539,617,62,126822,116392
3543,615,62,126824,116394
3545,610,62,126848,116399
3548,608,62,126848,116407
3550,604,62,126859,116413
3552,600,62,126883,116413
3555,590,62,126894,116425
3557,587,62,126906,116420
3560,586,62,126906,116418
3562,587,62,126912,116425
3565,591,62,126925,116425
3567,605,63,126942,116435
3569,613,63,126942,116438
3572,627,63,126955,116447
3574,637,63,126962,116447
3577,648,63,126982,116449
3579,673,63,126991,116451
3582,688,63,126991,116458
3585,711,63,127010,116457
3588,724,63,127026,116457
3590,721,63,127025,116470
3592,703,63,127025,116471
3595,672,63,127032,116477
3597,651,64,127052,116477
3600,631,64,127064,116484
3602,596,64,127068,116474
3605,586,64,127068,116487
3607,571,64,127068,116488
3609,566,64,127083,116493
3612,562,64,127083,116490
3614,561,64,127099,116490
3617,556,64,127111,116492
3619,552,64,127111,116495
3622,549,64,127115,116499
3624,547,64,127122,116499
3628,544,64,127130,116503
3630,542,64,127130,116511
3632,540,64,127132,116507
3635,540,64,127139,116507
3637,539,64,127139,116512
3640,536,64,127152,116510
3642,534,64,127162,116510
3645,532,64,127173,116515
3647,529,65,127173,116521
3649,528,65,127167,116516
3652,527,65,127175,116524
3654,527,65,127195,116524
3657,526,65,127195,116525
3659,525,65,127192,116525
3662,524,65,127219,116536
3664,522,65,127219,116534
3667,521,65,127216,116543
3670,521,65,127217,116543
3672,520,65,127221,116540
3675,520,65,127221,116541
3677,519,65,127234,116542
3680,517,65,127230,116542
3682,515,65,127247,116549
3685,513,65,127247,116549
3687,512,65,127259,116549
3689,511,65,127263,116561
3692,510,65,127263,116564
3694,510,65,127262,116561
3697,509,65,127284,116561
3699,508,65,127279,116563
3702,506,66,127279,116562
3704,505,66,127289,116562
3707,505,65,127290,116562
3709,504,66,127290,116567
3712,504,66,127304,116567
3715,504,66,127310,116579
3717,503,66,127310,116577
3720,502,66,127312,116582
3722,500,66,127313,116578
3725,500,66,127312,116578
3727,499,66,127327,116583
3729,497,66,127327,116571
3732,497,66,127324,116571
3734,497,66,127331,116581
3737,497,66,127331,116584
3739,495,66,127343,116588
3742,495,66,127346,116588
3744,494,66,127344,116580
3747,492,66,127344,116586
3749,491,66,127321,116586
3751,491,66,127321,116580
3755,491,66,127304,116574
3757,491,66,127294,116562
3760,489,66,127271,116550
3762,488,66,127244,116529
3765,487,66,127201,116529
3767,486,66,127155,116517
3769,485,66,127102,116495
3772,484,66,127046,116467
3774,483,66,126977,116440
3777,482,67,126830,116412
3779,482,67,126830,116363
3782,479,66,126747,116337
3784,478,67,126667,116337
3787,476,67,126598,116305
3789,475,66,126514,116280
3791,475,67,126433,116252
3794,474,67,126367,116226
3796,474,67,126316,116213
3800,473,67,126255,116189
3802,472,67,126203,116172
3805,471,67,126143,116148
3807,470,67,126087,116136
3809,469,67,126045,116112
3812,469,67,125987,116102
3814,470,67,125960,116091
3817,470,67,125939,116077
3819,469,67,125901,116072
3822,468,67,125875,116066
3824,466,67,125860,116054
3827,466,67,125845,116051
3829,465,67,125825,116049
3831,464,67,125813,116052
3834,463,67,125809,116047
3836,464,67,125817,116049
3840,463,67,125802,116049
3842,463,67,125814,116047
3845,462,67,125818,116048
3847,463,67,125822,116059
3849,462,67,125830,116056
3852,462,67,125850,116065
3854,462,67,125863,116077
3857,462,67,125867,116080
3859,461,67,125892,116086
3862,461,67,125910,116084
3864,460,67,125930,116095
3867,460,67,125958,116111
3869,460,67,125992,116118
3871,460,67,126020,116119
3874,462,67,126034,116138
3876,462,67,126070,116145
3879,462,68,126097,116159
3881,462,67,126129,116166
3885,461,67,126153,116177
3887,460,67,126182,116184
3889,460,67,126202,116198
3892,460,68,126223,116202
3894,461,67,126264,116208
3897,463,67,126288,116213
3899,464,67,126317,116232
3902,464,67,126335,116246
3904,464,67,126357,116240
3907,465,68,126378,116246
3909,466,68,126395,116255
3911,466,68,126416,116271
3914,466,68,126431,116269
3916,467,68,126448,116268
3919,467,68,126461,116282
3921,467,68,126477,116286
3924,468,68,126489,116294
3927,468,68,126498,116295
3929,468,68,126529,116298
3932,469,68,126525,116297
3934,470,68,126536,116307
3937,473,68,126542,116309
3939,472,68,126553,116313
3942,472,68,126552,116308
3944,471,68,126569,116309
3947,471,68,126572,116322
3949,471,68,126586,116318
3951,471,68,126590,116333
3954,472,68,126607,116332
3956,472,68,126617,116329
3959,473,68,126626,116334
3961,472,68,126644,116340
3964,472,68,126653,116347
3966,471,68,126654,116350
3969,472,68,126669,116356
3972,473,69,126683,116358
3974,475,68,126693,116365
3977,476,69,126701,116368
3979,476,69,126720,116359
3982,475,69,126720,116364
3984,474,68,126736,116370
3987,473,69,126746,116377
3989,473,69,126759,116379
3991,473,69,126763,116387
3994,473,69,126764,116376
3996,473,69,126770,116381
3999,473,69,126777,116396
4001,472,69,126785,116384
4004,471,69,126785,116390
4006,471,69,126784,116394
4008,470,69,126794,116394
4012,470,69,126800,116399
4014,471,69,126802,116396
4017,471,69,126803,116392
4019,471,69,126802,116395
4022,471,69,126799,116400
4024,471,69,126807,116395
4027,471,69,126807,116405
4029,471,69,126808,116391
4031,471,69,126804,116391
4034,473,69,126809,116399
4036,474,69,126793,116396
4039,473,69,126793,116393
4041,473,69,126799,116393
4044,473,69,126795,116393
4046,473,69,126795,116389
4048,473,69,126795,116398
4051,474,69,126786,116390
4054,475,70,126791,116390
4057,475,69,126787,116395
4059,475,69,126785,116385
4062,474,70,126785,116383
4064,472,69,126768,116386
4067,471,70,126768,116386
4069,469,70,126770,116380
4071,469,69,126770,116384
4074,470,70,126753,116379
4076,470,70,126760,116379
4079,469,70,126755,116378
4081,467,70,126744,116370
4084,465,70,126747,116373
4086,462,70,126747,116373
4088,460,70,126755,116378
4091,460,70,126749,116380
4093,460,70,126754,116380
4097,460,70,126754,116377
4099,459,70,126754,116380
4102,458,70,126758,116384
4104,457,70,126761,116384
4107,457,70,126769,116388
4109,456,70,126769,116382
4111,456,70,126764,116389
4114,457,70,126778,116384
4116,457,70,126778,116394
4119,457,70,126784,116392
4121,457,70,126792,116392
4124,456,70,126798,116391
4126,456,70,126798,116394
4128,456,70,126795,116403
4131,457,70,126820,116403
4133,457,70,126829,116400
4136,457,70,126829,116412
4139,456,70,126844,116412
4142,455,70,126848,116407
4144,453,70,126848,116420
4147,452,70,126860,116418
4149,449,70,126870,116427
4151,446,70,126870,116423
4154,444,70,126890,116423
4156,443,70,126873,116427
4159,443,70,126914,116432
4161,448,70,126914,116436
4164,454,70,126921,116436
4166,463,70,126931,116443
4168,472,71,126939,116444
4171,496,70,126939,116451
4173,512,70,126947,116447
4176,523,70,126964,116447
4178,536,71,126979,116456
4182,571,71,126979,116457
4184,586,71,126984,116457
4187,613,71,126984,116463
4189,609,71,126989,116467
4191,593,71,126997,116467
4194,566,71,127016,116476
4196,539,71,127013,116478
4199,496,71,127013,116478
4201,473,71,127024,116472
4204,460,71,127021,116472
4206,450,71,127035,116487
4208,445,71,127035,116484
4211,441,71,127040,116488
4213,440,71,127052,116488
4216,439,71,127058,116486
4218,436,71,127062,116493
4221,432,71,127062,116495
4224,430,71,127067,116495
4227,429,71,127067,116504
4229,428,71,127067,116500
4231,427,71,127082,116500
4234,429,71,127075,116501
4236,430,71,127081,116504
4239,432,71,127081,116505
4241,432,71,127101,116505
4244,432,71,127089,116509
4246,432,71,127094,116514
4248,432,71,127111,116509
4251,432,71,127110,116513
4253,436,71,127114,116519
4256,437,71,127124,116515
4258,438,71,127124,116524
4261,438,71,127124,116524
4263,437,71,127128,116524
4267,438,71,127136,116521
4269,439,71,127141,116528
4271,440,71,127140,116524
4274,441,71,127150,116531
4276,443,71,127154,116525
4279,443,71,127149,116529
4281,444,71,127168,116531
4284,444,71,127176,116538
4286,444,71,127166,116534
4288,445,71,127166,116538
4291,447,71,127177,116537
4293,448,71,127187,116541
4296,449,71,127180,116553
4298,450,71,127190,116546
4301,450,71,127202,116548
4303,452,71,127200,116550
4306,452,71,127205,116552
4308,452,71,127204,116550
4311,453,71,127204,116559
4314,454,71,127206,116553
4316,455,71,127210,116555
4319,455,71,127212,116549
4321,455,71,127222,116558
4324,455,71,127226,116556
4326,454,71,127222,116565
4328,454,71,127231,116558
4331,455,71,127225,116560
4333,455,71,127222,116560
4336,454,71,127234,116565
4338,454,71,127238,116570
4341,453,71,127228,116567
4343,452,71,127217,116566
4346,452,71,127227,116571
4348,452,71,127231,116570
4350,453,71,127239,116572
4354,455,71,127229,116566
4356,455,71,127225,116561
4359,454,71,127203,116551
4361,452,71,127182,116538
4364,452,71,127142,116536
4366,451,71,127117,116509
4368,451,71,127072,116489
4371,451,71,127012,116475
4373,451,71,126949,116451
4376,451,71,126898,116425
4378,451,71,126831,116406
4381,450,71,126761,116381
4383,448,71,126685,116354
4386,447,71,126608,116327
4388,447,71,126539,116302
4390,447,71,126461,116278
4393,448,71,126378,116252
4396,448,71,126327,116232
4399,447,71,126280,116212
4401,444,71,126219,116189
4404,444,71,126162,116164
4406,443,71,126112,116146
4408,443,71,126052,116132
4411,442,71,126003,116112
4413,442,71,125968,116106
4416,442,71,125933,116096
4418,441,71,125895,116085
4421,439,71,125869,116081
4423,436,71,125848,116078
4426,434,71,125839,116065
4428,432,71,125815,116056
4430,429,71,125799,116058
4433,428,71,125783,116056
4435,426,71,125784,116054
4439,423,71,125772,116048
4441,418,71,125768,116059
4444,415,71,125773,116041
4446,411,71,125771,116049
4448,408,71,125783,116056
4451,406,71,125787,116054
4453,404,71,125788,116045
4456,403,71,125800,116060
4458,402,71,125803,116059
4461,400,71,125818,116066
4463,399,70,125838,116080
4466,398,70,125860,116084
4468,394,70,125881,116089
4470,393,70,125890,116097
4473,392,70,125914,116101
4475,392,70,125929,116108
4478,392,70,125929,116115
4481,392,70,125975,116122
4484,392,70,125997,116122
4486,392,70,126025,116136
4488,393,70,126052,116144
4491,394,70,126061,116150
4493,395,70,126061,116156
4496,396,70,126099,116159
4498,398,70,126119,116167
4501,398,70,126119,116173
4503,398,70,126152,116172
4506,398,70,126177,116172
4508,396,70,126194,116189
4510,396,70,126212,116195
4513,393,69,126225,116199
4515,390,70,126225,116198
4518,385,69,126244,116214
4520,378,69,126262,116210
4524,370,69,126262,116211
4526,361,69,126280,116219
4528,354,69,126296,116219
4531,339,69,126319,116228
4533,332,69,126319,116233
4536,324,68,126317,116232
4538,317,68,126333,116232
4541,308,68,126350,116240
4543,293,68,126348,116235
4546,288,68,126347,116245
4548,276,68,126370,116243
4550,272,67,126371,116243
4553,265,67,126386,116245
4555,263,67,126386,116258
4558,260,67,126394,116261
4560,258,67,126415,116261
4563,256,67,126432,116265
4566,255,67,126444,116271
4568,256,66,126444,116274
4571,258,66,126462,116274
4573,261,66,126477,116281
4576,264,66,126488,116291
4578,269,66,126488,116293
4581,271,66,126498,116298
4583,273,66,126516,116298
4586,276,66,126533,116300
4588,281,65,126533,116303
4590,286,65,126539,116307
4593,289,65,126554,116307
4595,294,65,126563,116302
4598,298,65,126572,116313
4600,304,65,126572,116317
4603,306,65,126568,116317
4605,308,65,126578,116317
4608,310,65,126593,116322
4611,314,64,126594,116316
4613,316,65,126590,116316
4616,321,64,126590,116320
4618,325,64,126592,116322
4621,327,64,126596,116322
4623,330,64,126596,116321
4626,332,64,126604,116315
4628,334,64,126593,116315
4630,337,64,126598,116321
4633,344,64,126596,116321
4635,347,64,126594,116321
4638,351,64,126594,116318
4640,353,63,126597,116317
4643,354,63,126586,116317
4645,358,63,126586,116304
4647,363,63,126584,116306
4651,367,63,126567,116306
4653,375,63,126567,116305
4656,381,63,126563,116307
4658,384,63,126556,116297
4661,387,63,126558,116297
4663,389,63,126553,116301
4666,393,63,126553,116291
4668,395,63,126529,116291
4670,398,63,126531,116296
4673,404,63,126531,116293
4675,407,63,126527,116288
4678,409,63,126527,116288
4680,411,63,126517,116290
4683,414,63,126517,116283
4685,415,62,126516,116283
4687,416,63,126507,116283
4690,417,63,126512,116282
4692,419,63,126513,116290
4696,423,62,126513,116286
4698,425,63,126521,116286
4701,427,62,126511,116289
4703,428,62,126521,116293
4706,429,62,126521,116289
4708,432,62,126533,116296
4710,434,62,126532,116296
4713,436,62,126545,116297
4715,440,62,126540,116297
4718,442,62,126552,116303
4720,444,62,126554,116308
4723,445,62,126574,116311
4725,445,62,126574,116320
4727,445,62,126574,116312
4730,446,62,126581,116312
4732,447,62,126580,116312
4736,449,62,126604,116318
4738,451,62,126611,116316
4741,451,62,126619,116319
4743,451,62,126620,116323
4746,451,62,126633,116328
4748,450,62,126653,116336
4750,450,62,126639,116339
4753,451,62,126659,116337
4755,453,62,126663,116331
4758,451,62,126679,116341
4760,448,61,126686,116347
4763,444,61,126698,116350
4765,443,62,126705,116353
4767,446,61,126730,116362
4770,452,61,126711,116361
4772,459,61,126739,116360
4775,473,61,126753,116368
4777,486,61,126764,116372
4781,502,61,126764,116375
4783,528,61,126779,116382
4786,540,61,126786,116388
4788,557,61,126791,116378
4790,574,61,126793,116388
4793,615,61,126798,116388
4795,624,61,126805,116389
4798,620,61,126817,116402
4800,605,61,126822,116390
4803,582,61,126834,116401
4805,542,61,126831,116399
4807,528,61,126835,116406
4810,516,61,126846,116399
4812,509,61,126850,116403
4815,504,61,126864,116404
4817,498,61,126873,116413
4820,496,61,126880,116412
4823,494,61,126866,116416
4826,492,61,126889,116413
4828,491,61,126872,116419
4830,492,61,126886,116419
4833,493,61,126894,116423
4835,495,61,126905,116417
4838,497,61,126899,116424
4840,497,61,126904,116424
4843,497,61,126918,116422
4845,498,61,126920,116428
4847,499,61,126921,116430
4850,501,62,126930,116429
4852,502,61,126929,116433
4855,505,61,126929,116436
4857,505,61,126931,116444
4860,505,61,126948,116438
4862,505,61,126957,116432
4866,505,61,126948,116443
4868,506,61,126951,116444
4870,507,61,126958,116450
4873,508,61,126964,116444
4875,510,61,126975,116446
4878,511,61,126973,116452
4880,511,61,126977,116456
4883,511,61,126986,116458
4885,512,61,126989,116455
4887,514,61,126988,116463
4890,518,61,127000,116458
4892,520,61,126998,116463
4895,521,61,127007,116463
4897,523,61,127004,116468
4900,525,61,127025,116469
4902,528,61,127031,116473
4905,530,61,127037,116476
4908,531,61,127039,116476
4910,533,61,127042,116475
4913,536,61,127038,116481
4915,539,61,127047,116480
4918,540,61,127055,116481
4920,541,61,127057,116480
4923,542,61,127059,116481
4925,542,61,127072,116489
4927,544,61,127064,116486
4930,546,61,127071,116491
4932,547,61,127072,116487
4935,549,61,127082,116493
4937,550,61,127090,116489
4940,550,61,127082,116493
4942,548,61,127089,116495
4945,547,61,127088,116485
4947,547,61,127084,116491
4950,547,61,127083,116491
4953,548,61,127083,116487
4955,549,61,127073,116481
4958,548,61,127073,116478
4960,547,61,127050,116471
4963,546,61,127027,116471
4965,542,61,127003,116454
4967,541,61,126955,116437
4970,540,61,126912,116415
4972,540,61,126912,116392
4975,541,61,126796,116367
4977,540,61,126715,116342
4980,540,61,126715,116316
4982,538,61,126575,116291
4985,537,61,126503,116291
4987,535,61,126428,116236
4989,535,61,126352,116207
4993,535,61,126289,116191
4995,535,61,126289,116166
4998,534,61,126155,116134
5000,531,61,126092,116115
5003,529,61,126092,116087
5005,527,61,125975,116071
5007,526,61,125926,116071
5010,524,61,125894,116046
5012,523,61,125894,116033
5015,523,61,125811,116019
5017,523,61,125785,116019
5020,522,61,125756,116008
5022,519,61,125727,115989
5025,518,61,125703,115989
5027,515,61,125673,115975
5029,515,61,125655,115975
5032,513,61,125654,115965
5035,512,61,125654,115958
5038,510,61,125637,115954
5040,509,61,125613,115954
5043,507,61,125613,115960
5045,503,61,125613,115951
5047,501,61,125607,115949
5050,499,61,125607,115949
5052,498,61,125610,115955
5055,497,60,125606,115955
5057,493,60,125606,115958
5060,490,60,125618,115964
5062,487,60,125628,115964
5065,484,60,125651,115962
5067,479,60,125651,115974
5069,478,60,125660,115972
5072,478,60,125678,115972
5074,478,60,125707,115988
5078,477,60,125710,115996
5080,474,60,125710,115998
5083,472,60,125743,116008
5085,471,60,125766,116008
5087,470,60,125786,116015
5090,469,60,125802,116021
5092,470,60,125815,116021
5095,471,60,125815,116035
5097,470,60,125836,116036
5100,469,60,125864,116036
5102,467,59,125864,116048
5105,468,59,125892,116058
5107,469,60,125915,116058
5109,470,59,125928,116063
5112,474,59,125928,116070
5114,477,59,125941,116075
5117,477,59,125960,116075
5120,477,59,125969,116079
5123,476,59,125969,116081
5125,477,59,125979,116081
5127,477,59,125987,116089
5130,478,59,125987,116085
5132,481,59,125990,116087
5135,483,59,125995,116087
5137,485,59,125999,116084
5140,484,59,125999,116090
5142,484,59,125999,116085
5145,484,59,126003,116085
5147,484,59,126010,116088
5149,484,59,126010,116094
5152,485,59,126010,116093
5154,485,59,126020,116090
5157,485,59,126017,116090
5159,484,58,126024,116098
5163,482,58,126024,116091
5165,478,58,126023,116092
5167,477,58,126038,116092
5170,476,58,126041,116102
5172,476,58,126041,116102
5175,477,58,126053,116107
5177,476,58,126071,116107
5180,475,58,126082,116110
5182,473,58,126094,116118
5185,472,58,126094,116122
5187,470,58,126114,116134
5189,470,58,126128,116134
5192,471,58,126145,116135
5194,472,58,126150,116132
5197,472,58,126164,116148
5199,470,57,126177,116147
5202,469,58,126206,116153
5204,468,57,126218,116155
5207,468,57,126218,116156
5210,467,57,126218,116156
5212,468,57,126224,116155
5215,469,57,126245,116163
5217,471,57,126249,116162
5220,470,57,126262,116168
5222,469,57,126254,116169
5225,468,57,126261,116172
5227,467,57,126267,116174
5229,466,57,126269,116175
5232,467,57,126268,116178
5234,469,57,126279,116177
5237,470,57,126282,116182
5239,470,57,126292,116170
5242,468,56,126295,116184
5244,467,56,126304,116175
5246,466,56,126302,116179
5250,466,56,126300,116182
5252,467,56,126294,116185
5255,469,56,126296,116179
5257,469,56,126291,116181
5260,468,56,126288,116179
5262,467,56,126284,116177
5265,468,56,126291,116175
5267,468,56,126280,116174
5269,469,56,126285,116173
5272,472,56,126284,116177
5274,474,56,126289,116174
5277,475,56,126282,116179
5279,476,56,126277,116176
5282,476,56,126284,116173
5284,479,56,126274,116173
5286,481,56,126268,116173
5289,483,55,126280,116162
5292,486,55,126272,116165
5295,491,55,126277,116169
5297,495,56,126283,116168
5300,495,55,126276,116176
5302,496,55,126274,116170
5305,496,55,126282,116174
5307,496,55,126268,116175
5309,497,55,126271,116173
5312,497,55,126274,116172
5314,499,55,126283,116174
5317,500,55,126283,116174
5319,499,55,126294,116180
5322,499,55,126303,116180
5324,500,55,126302,116185
5326,500,55,126312,116190
5329,500,55,126312,116187
5331,501,55,126324,116191
5335,503,55,126328,116188
5337,504,55,126335,116201
5340,505,55,126347,116200
5342,505,55,126368,116209
5345,506,55,126374,116208
5347,506,55,126375,116214
5349,507,55,126397,116224
5352,509,55,126395,116215
5354,512,55,126420,116224
5357,515,55,126425,116228
5359,516,54,126433,116232
5362,516,54,126455,116237
5364,517,55,126465,116252
5366,518,55,126477,116241
5369,519,55,126480,116254
5371,522,55,126494,116259
5374,526,54,126507,116260
5377,528,54,126523,116258
5380,529,54,126526,116266
5382,530,54,126541,116263
5385,531,55,126551,116286
5387,533,55,126556,116284
5389,535,54,126563,116275
5392,536,54,126579,116282
5394,536,54,126582,116288
5397,536,54,126585,116286
5399,536,54,126596,116293
5402,538,54,126613,116294
5404,543,54,126628,116300
5406,550,54,126623,116300
5409,569,54,126639,116312
5411,582,54,126647,116298
5414,594,54,126657,116315
5416,609,54,126661,116313
5420,619,54,126672,116307
5422,642,55,126678,116313
5425,656,54,126678,116307
5427,676,54,126689,116321
5429,690,54,126696,116321
5432,695,55,126709,116328
5434,680,55,126720,116335
5437,662,55,126720,116335
5439,637,54,126731,116337
5442,620,55,126735,116337
5444,591,55,126754,116337
5446,584,55,126760,116335
5449,577,55,126769,116340
5451,575,55,126769,116345
5454,576,55,126775,116350
5456,576,55,126787,116347
5459,576,55,126787,116352
5462,576,55,126797,116356
5465,577,55,126809,116356
5467,580,55,126817,116363
5469,583,55,126817,116361
5472,588,55,126828,116351
5474,592,55,126829,116351
5477,595,55,126846,116370
5479,602,55,126850,116364
5482,605,55,126846,116383
5484,611,55,126846,116376
5486,616,55,126866,116374
5489,621,55,126868,116377
5491,625,56,126872,116377
5494,635,55,126877,116381
5496,638,56,126877,116390
5499,641,56,126874,116389
5501,644,56,126889,116389
5505,646,56,126898,116393
5507,649,56,126906,116389
5509,651,56,126906,116401
5512,654,56,126903,116393
5514,656,56,126907,116393
5517,658,56,126916,116402
5519,659,56,126916,116397
5522,659,56,126924,116401
5524,659,56,126925,116401
5526,659,56,126927,116401
5529,660,56,126932,116407
5531,661,56,126932,116404
5534,662,56,126945,116404
5536,664,56,126955,116405
5539,663,56,126959,116418
5541,662,57,126959,116412
5544,661,56,126961,116422
5547,661,57,126976,116422
5549,661,57,126984,116423
5552,662,57,127000,116427
5554,663,57,126999,116427
5557,666,57,126999,116438
5559,667,57,127013,116440
5562,667,57,127023,116440
5564,669,57,127023,116438
5566,670,57,127028,116442
5569,672,57,127038,116442
5571,674,57,127038,116446
5574,681,57,127048,116438
5576,684,58,127045,116438
5579,691,58,127045,116450
5581,694,58,127051,116456
5584,697,58,127056,116456
5586,700,58,127056,116448
5588,703,58,127061,116454
5592,706,58,127040,116454
5594,707,58,127033,116446
5597,710,58,127033,116426
5599,709,58,127004,116416
5602,708,58,126977,116416
5604,707,59,126891,116403
5606,705,59,126891,116361
5609,705,59,126776,116361
5611,704,59,126701,116341
5614,705,59,126701,116284
5616,703,59,126638,116259
5619,701,59,126483,116259
5621,698,59,126395,116229
5624,692,59,126395,116173
5626,688,59,126322,116145
5628,686,59,126235,116145
5632,683,59,126124,116127
5634,681,59,126052,116112
5637,675,59,126052,116056
5639,670,59,126000,116036
5642,666,59,125877,116036
5644,661,59,125833,116019
5646,657,59,125833,115993
5649,648,59,125787,115975
5651,645,59,125747,115975
5654,640,59,125725,115968
5656,636,59,125690,115961
5659,632,59,125665,115952
5661,622,59,125643,115944
5664,617,59,125609,115943
5666,613,59,125582,115941
5668,609,59,125582,115933
5671,604,59,125585,115918
5673,603,59,125579,115918
5677,601,59,125566,115921
5679,597,59,125568,115922
5682,594,59,125559,115916
5684,591,59,125567,115918
5686,589,59,125575,115926
5689,589,59,125577,115930
5691,590,59,125592,115934
5694,590,60,125595,115941
5696,590,59,125615,115941
5699,590,59,125622,115948
5701,587,59,125644,115954
5704,587,59,125662,115959
5706,587,59,125669,115960
5708,587,59,125688,115968
5711,588,59,125703,115983
5713,590,60,125726,115979
5716,591,59,125737,115989
5719,591,59,125757,115993
5722,590,59,125776,116002
5724,587,59,125804,116013
5726,586,59,125814,116019
5729,585,59,125841,116023
5731,584,59,125862,116027
5734,583,59,125872,116031
5736,581,59,125893,116038
5739,579,59,125915,116055
5741,578,59,125931,116058
5744,576,59,125957,116064
5746,574,60,125952,116068
5748,574,60,125980,116080
5751,574,59,125995,116074
5753,574,59,126011,116087
5756,573,60,126039,116091
5758,572,60,126044,116091
5762,570,59,126054,116098
5764,570,59,126063,116101
5766,570,59,126077,116093
5769,571,60,126075,116106
5771,573,60,126092,116112
5774,575,59,126108,116109
5776,577,60,126113,116116
5779,577,60,126120,116122
5781,577,60,126123,116118
5784,576,60,126123,116121
5786,576,60,126128,116120
5788,576,59,126140,116115
5791,577,60,126140,116118
5793,577,60,126147,116123
5796,576,60,126154,116122
5798,575,60,126174,116120
5801,572,60,126175,116132
5804,568,60,126189,116134
5806,566,60,126205,116143
5809,565,60,126208,116137
5811,564,60,126221,116149
5814,563,60,126219,116152
5816,558,59,126237,116152
5819,556,60,126252,116154
5821,552,59,126266,116164
5824,550,59,126280,116164
5826,545,59,126292,116178
5828,544,59,126299,116178
5831,543,59,126314,116178
5833,542,59,126316,116160
5836,540,59,126337,116189
5838,538,59,126353,116187
5841,535,59,126349,116197
5843,532,59,126364,116200
5846,530,59,126373,116204
5849,529,59,126380,116200
5851,529,59,126384,116199
5854,528,59,126394,116203
5856,526,59,126404,116206
5859,524,59,126401,116214
5861,520,59,126410,116210
5864,517,59,126410,116206
5866,512,59,126412,116207
5868,510,59,126410,116202
5871,508,59,126413,116211
5873,506,59,126411,116207
5876,505,59,126407,116201
5878,497,59,126406,116202
5881,495,59,126406,116199
5883,489,58,126409,116193
5885,487,59,126409,116200
5889,484,58,126396,116204
5891,483,58,126399,116200
5894,482,58,126398,116194
5896,482,58,126387,116194
5899,481,58,126384,116194
5901,479,58,126392,116189
5904,478,58,126392,116188
5906,477,58,126367,116182
5908,476,58,126359,116182
5911,476,58,126362,116187
5913,476,58,126369,116171
5916,476,58,126369,116176
5918,476,58,126361,116176
5921,477,58,126364,116176
5923,482,58,126361,116177
5925,484,58,126361,116172
5928,488,58,126350,116170
5931,490,58,126352,116170
5934,492,57,126354,116174
5936,492,57,126354,116175
5939,490,57,126354,116170
5941,486,57,126353,116172
5944,484,57,126360,116172
5946,480,57,126357,116175
5948,479,57,126357,116178
5951,478,57,126370,116181
5953,478,57,126372,116181
5956,478,57,126389,116186
5958,478,57,126389,116182
5961,478,57,126392,116187
5963,478,57,126392,116189
5965,480,57,126403,116193
5968,483,57,126407,116202
5970,485,57,126423,116202
5974,492,57,126427,116208
5976,493,57,126427,116205
5979,495,57,126446,116210
5981,496,57,126465,116210
5984,498,57,126472,116212
5986,504,57,126472,116216
5988,507,57,126475,116216
5991,509,57,126491,116218
5993,513,57,126491,116222
5996,515,57,126506,116227
5998,516,57,126518,116227
6001,516,56,126531,116236
6003,516,57,126531,116235
6005,515,57,126536,116247
6008,515,56,126554,116247
6010,516,57,126572,116251
6013,518,57,126573,116255
6016,518,57,126585,116255
6019,518,56,126597,116261
6021,515,56,126597,116271
6024,512,56,126608,116271
6026,507,57,126624,116274
6028,503,56,126624,116278
6031,502,56,126650,116278
6033,503,56,126665,116278
6036,505,56,126665,116287
6038,514,56,126665,116295
6041,523,56,126691,116301
6043,531,56,126701,116301
6045,539,56,126713,116301
6048,564,56,126713,116308
6050,580,56,126718,116311
6053,592,56,126739,116311
6055,606,56,126753,116320
6059,638,56,126753,116320
6061,650,56,126754,116320
6064,661,56,126774,116328
6066,647,56,126774,116335
6068,618,56,126773,116324
6071,596,56,126795,116324
6073,572,56,126797,116333
6076,538,56,126797,116335
6078,522,56,126805,116336
6081,513,56,126806,116336
6083,505,56,126816,116335
6085,501,56,126814,116340
6088,495,56,126814,116341
6090,493,56,126824,116344
6093,491,56,126835,116344
6095,488,56,126836,116351
6098,481,56,126836,116352
6100,478,55,126843,116358
6104,477,56,126840,116358
6106,476,56,126851,116353
6108,476,56,126856,116360
6111,476,55,126856,116363
6113,478,55,126874,116362
6116,478,56,126872,116362
6118,478,55,126873,116366
6121,479,55,126873,116374
6123,480,55,126875,116376
6125,480,55,126881,116376
6128,481,55,126871,116366
6130,483,55,126882,116376
6133,484,55,126892,116377
6135,484,55,126886,116380
6138,483,55,126900,116370
6140,481,55,126900,116377
6144,480,55,126900,116382
6146,478,55,126909,116382
6148,478,55,126907,116382
6151,478,55,126911,116391
6153,479,54,126912,116379
6156,480,54,126915,116382
6158,478,55,126913,116388
6161,476,54,126920,116389
6163,475,54,126933,116396
6165,475,54,126939,116394
6168,475,54,126942,116391
6170,476,54,126945,116390
6173,477,54,126943,116403
6175,477,54,126952,116398
6178,476,54,126961,116398
6180,475,54,126967,116399
6183,475,54,126966,116406
6185,475,54,126967,116406
6188,476,54,126969,116409
6191,477,54,126982,116403
6193,479,54,126982,116410
6196,479,54,126979,116412
6198,479,54,126990,116414
6201,478,53,126999,116417
6203,478,54,127006,116428
6205,478,53,127013,116413
6208,479,54,127009,116409
6210,480,54,127006,116428
6213,482,53,127016,116427
6215,484,53,127021,116428
6218,484,53,127017,116431
6220,483,53,127020,116435
6223,483,53,127026,116431
6225,482,53,127030,116428
6227,482,53,127031,116433
6231,483,53,127019,116425
6233,484,53,127009,116410
6236,484,53,126985,116409
6238,484,53,126955,116405
6241,483,53,126923,116385
6243,482,53,126876,116363
6245,481,53,126819,116340
6248,481,53,126766,116316
6250,481,53,126698,116298
6253,481,53,126638,116272
6255,480,53,126561,116242
6258,480,52,126485,116221
6260,479,52,126406,116189
6263,478,52,126333,116166
6265,476,52,126256,116137
6267,476,52,126182,116114
6270,475,52,126134,116091
6273,475,52,126077,116066
6276,475,52,126018,116054
6278,474,52,125941,116027
6281,472,52,125885,116011
6283,469,52,125842,115996
6285,468,52,125803,115976
6288,467,52,125765,115975
6290,468,52,125733,115961
6293,468,52,125703,115953
6295,468,52,125678,115948
6298,467,52,125655,115927
6300,466,51,125638,115931
6303,464,51,125620,115919
6305,461,51,125595,115917
6307,460,51,125597,115916
6310,460,51,125586,115917
6312,460,51,125574,115913
6316,460,51,125565,115914
6318,459,51,125573,115916
6321,458,51,125574,115910
6323,456,51,125581,115921
6325,454,51,125594,115921
6328,454,51,125597,115923
6330,456,51,125599,115921
6333,459,51,125616,115931
6335,460,51,125624,115930
6338,460,51,125643,115941
6340,460,51,125654,115951
6343,460,51,125673,115945
6345,462,51,125699,115963
6347,464,51,125712,115968
6350,467,50,125744,115978
6352,472,50,125759,115981
6355,477,50,125784,115985
6358,479,50,125813,115999
6361,480,50,125813,116011
6363,483,50,125851,116016
6365,485,50,125877,116016
6368,493,50,125905,116031
6370,498,50,125922,116032
6373,502,50,125938,116045
6375,507,50,125959,116057
6378,510,50,125984,116054
6380,516,50,126004,116061
6383,519,50,126004,116074
6385,523,50,126040,116081
6387,526,50,126054,116081
6390,533,50,126083,116091
6392,536,50,126086,116094
6395,538,50,126086,116098
6397,540,50,126114,116099
6401,541,50,126120,116099
6403,543,50,126129,116110
6405,544,50,126129,116109
6408,546,50,126140,116111
6410,548,50,126142,116111
6413,550,50,126156,116118
6415,550,50,126161,116112
6418,549,50,126161,116121
6420,547,50,126174,116121
6423,545,50,126183,116121
6425,542,50,126186,116124
6427,541,50,126186,116129
6430,540,50,126197,116136
6432,540,50,126219,116136
6435,540,50,126226,116130
6437,537,50,126239,116144
6440,535,50,126240,116156
6443,532,50,126240,116154
6445,531,50,126258,116167
6448,530,50,126295,116167
6450,531,50,126309,116167
6453,531,50,126317,116180
6455,531,50,126317,116186
6458,529,50,126334,116189
6460,529,50,126354,116189
6463,529,50,126363,116192
6465,529,50,126363,116200
6467,529,50,126379,116200
6470,530,50,126385,116203
6472,531,50,126385,116196
6475,532,50,126409,116201
6477,533,50,126415,116201
6480,533,50,126424,116209
6482,533,50,126424,116212
6484,534,50,126432,116215
6488,536,50,126440,116208
6490,538,50,126439,116208
6493,541,50,126439,116222
6495,542,50,126439,116222
6498,542,50,126443,116225
6500,540,50,126443,116216
6503,539,50,126442,116220
6505,539,50,126441,116220
6507,539,50,126439,116222
6510,541,50,126439,116215
6512,542,50,126432,116214
6515,542,50,126425,116214
6517,542,50,126422,116215
6520,540,50,126422,116209
6522,539,50,126413,116209
6524,537,50,126410,116206
6528,534,50,126410,116209
6530,533,50,126399,116212
6533,532,50,126391,116212
6535,531,50,126386,116211
6538,528,50,126386,116200
6540,525,50,126381,116206
6543,523,50,126360,116206
6545,520,50,126360,116192
6547,518,50,126365,116195
6550,516,50,126356,116193
6552,514,50,126356,116191
6555,512,50,126350,116190
6557,508,50,126350,116192
6560,506,50,126342,116192
6562,503,50,126352,116193
6564,500,50,126352,116187
6567,499,50,126338,116187
6569,497,50,126338,116190
6573,497,49,126338,116188
6575,492,49,126341,116188
6578,489,49,126344,116188
6580,486,49,126353,116194
6583,481,49,126353,116194
6585,480,49,126355,116194
6587,479,49,126355,116201
6590,478,49,126366,116198
6592,477,49,126354,116208
6595,475,49,126364,116201
6597,472,49,126371,116212
6600,470,49,126379,116212
6602,468,49,126379,116217
6604,466,49,126393,116216
6607,463,49,126397,116220
6609,461,49,126409,116220
6612,460,49,126421,116223
6615,459,49,126421,116225
6618,455,48,126426,116235
6620,453,48,126439,116235
6623,451,48,126452,116234
6625,450,48,126457,116240
6627,449,48,126458,116243
6630,449,48,126478,116245
6632,450,48,126481,116255
6635,449,48,126493,116257
6637,448,48,126503,116257
6640,444,48,126515,116260
6642,434,48,126528,116261
6644,430,48,126543,116261
6647,428,48,126533,116269
6649,429,48,126558,116268
6652,433,48,126566,116271
6654,449,48,126570,116277
6658,457,47,126576,116280
6660,467,48,126588,116277
6663,476,48,126589,116282
6665,490,47,126595,116288
6667,503,47,126601,116294
6670,533,47,126616,116294
6672,552,48,126627,116295
6675,569,47,126622,116292
6677,586,47,126635,116303
6680,594,47,126645,116300
6682,568,47,126648,116302
6684,545,47,126659,116300
6687,519,47,126656,116302
6689,499,47,126660,116311
6692,477,47,126662,116311
6694,461,47,126673,116314
6697,449,47,126676,116316
6700,440,47,126682,116318
6703,436,47,126683,116326
6705,434,47,126694,116323
6707,432,47,126701,116325
6710,432,47,126702,116331
6712,431,47,126708,116332
6715,431,47,126710,116337
6717,429,46,126730,116337
6720,427,46,126718,116333
6722,427,46,126731,116336
6724,427,46,126723,116337
6727,427,46,126731,116334
6729,428,46,126749,116333
6732,431,46,126748,116341
6734,432,46,126749,116346
6737,432,46,126750,116346
6739,431,46,126755,116346
6743,431,46,126767,116348
6745,432,46,126764,116348
6747,432,46,126761,116351
6750,433,46,126779,116354
6752,433,46,126780,116349
6755,433,46,126777,116354
6757,433,46,126777,116365
6760,432,45,126778,116361
6762,431,46,126789,116366
6764,431,45,126795,116362
6767,431,45,126791,116368
6769,431,45,126803,116376
6772,432,45,126804,116370
6774,431,45,126809,116373
6777,429,45,126808,116368
6779,428,45,126807,116379
6782,425,45,126817,116354
6785,422,45,126819,116374
6787,421,45,126828,116377
6790,422,45,126828,116386
6792,422,44,126828,116381
6795,422,44,126836,116384
6797,418,44,126841,116392
6800,415,44,126850,116394
6802,411,44,126851,116392
6804,410,44,126858,116392
6807,409,44,126869,116395
6809,408,44,126863,116393
6812,408,44,126867,116400
6814,407,44,126869,116394
6817,406,44,126874,116397
6819,404,44,126872,116395
6822,402,43,126877,116402
6824,400,43,126891,116403
6827,399,43,126888,116404
6830,398,43,126891,116404
6832,398,43,126891,116399
6835,397,43,126883,116400
6837,395,43,126875,116393
6840,393,43,126875,116392
6842,391,43,126868,116393
6844,389,43,126859,116393
6847,386,43,126858,116386
6849,386,42,126820,116375
6852,385,42,126797,116357
6854,384,42,126743,116342
6857,382,42,126698,116320
6859,377,42,126646,116301
6862,375,42,126646,116281
6864,372,42,126507,116263
6866,370,42,126433,116263
6870,367,42,126371,116199
6872,367,41,126284,116173
6875,366,41,126284,116138
6877,364,41,126130,116109
6880,361,41,126074,116109
6882,355,41,126019,116075
6884,353,41,126019,116057
6887,351,40,125884,116028
6889,351,40,125820,116028
6892,352,40,125778,115990
6894,351,40,125724,115974
6897,349,40,125724,115962
6899,347,40,125634,115962
6902,346,40,125606,115944
6904,344,40,125565,115926
6906,343,40,125565,115916
6909,344,39,125511,115914
6912,345,39,125484,115914
6915,344,39,125469,115900
6917,341,39,125450,115879
6920,339,39,125430,115881
6922,338,39,125430,115870
6924,338,38,125417,115876
6927,339,38,125407,115865
6929,340,38,125390,115865
6932,344,38,125391,115864
6934,345,38,125391,115875
6937,345,38,125393,115871
6939,345,38,125390,115871
6942,344,37,125399,115863
6944,345,37,125399,115867
6946,347,37,125394,115874
6949,351,37,125404,115873
6951,354,37,125404,115875
6955,357,37,125424,115880
6957,358,37,125427,115880
6960,358,37,125449,115887
6962,358,37,125449,115893
6964,359,36,125459,115902
6967,360,36,125489,115902
6969,363,36,125509,115908
6972,369,36,125509,115917
6974,371,36,125535,115917
6977,372,36,125555,115928
6979,373,36,125555,115933
6982,374,36,125569,115943
6984,375,36,125596,115943
6986,376,36,125616,115948
6989,383,35,125616,115963
6991,388,35,125631,115963
6994,390,35,125652,115963
6996,392,35,125672,115964
7000,392,35,125672,115974
7002,393,35,125684,115974
7004,395,35,125698,115979
7007,398,35,125698,115982
7009,402,35,125705,115985
7012,405,35,125718,115985
7014,409,34,125718,115982
7017,413,34,125718,115980
7019,414,34,125724,115992
7022,415,34,125738,115992
7024,417,34,125738,115987
7026,420,34,125750,115992
7029,422,34,125752,115992
7031,427,34,125752,115990
7034,433,34,125752,115998
7036,434,34,125756,115997
7040,435,34,125762,115997
7042,436,34,125772,115996
7044,438,33,125772,116002
7047,440,33,125777,116002
7049,443,33,125777,116009
7052,451,33,125780,116005
7054,454,33,125793,116014
7057,455,33,125795,116014
7059,455,33,125804,116021
7062,455,33,125814,116016
7064,456,33,125827,116030
7066,458,33,125842,116023
7069,460,33,125863,116025
7071,464,33,125863,116042
7074,470,33,125881,116053
7076,470,32,125895,116053
7079,471,32,125901,116049
7081,471,33,125914,116059
7084,473,32,125931,116062
7087,474,32,125937,116060
7089,479,32,125957,116066
7092,482,32,125979,116066
7094,485,32,125979,116078
7097,487,32,125986,116078
7099,488,32,125992,116080
7102,489,32,126013,116085
7104,489,32,126009,116088
7106,491,32,126017,116087
7109,492,32,126026,116093
7111,498,32,126032,116096
7114,500,32,126035,116086
7116,502,32,126042,116091
7119,502,32,126037,116093
7121,503,32,126038,116087
7123,504,32,126053,116091
7127,506,32,126041,116092
7129,508,32,126051,116095
7132,513,32,126048,116091
7134,517,31,126053,116093
7137,518,31,126044,116088
7139,519,31,126050,116091
7142,519,31,126039,116084
7144,521,31,126029,116082
7146,522,31,126034,116081
7149,525,31,126023,116086
7151,532,31,126017,116079
7154,535,31,126017,116082
7156,536,31,126024,116076
7159,536,31,126024,116084
7161,537,31,126022,116074
7163,538,31,126010,116073
7166,541,31,126005,116073
7169,545,31,126002,116074
7172,549,31,125997,116071
7174,552,31,125993,116073
7177,553,31,125992,116071
7179,552,31,125982,116066
7182,552,31,125986,116071
7184,552,31,125994,116070
7186,551,31,126001,116072
7189,552,31,126006,116077
7191,555,31,126009,116072
7194,557,31,125997,116066
7196,557,31,126007,116071
7199,555,31,126009,116079
7201,554,31,126004,116086
7203,554,31,126018,116076
7206,553,31,126027,116089
7208,554,31,126031,116091
7212,556,31,126054,116093
7214,558,30,126062,116090
7217,558,31,126069,116095
7219,557,31,126076,116103
7222,556,31,126087,116104
7224,556,31,126090,116112
7226,554,31,126121,116113
7229,555,31,126115,116110
7231,559,30,126135,116123
7234,562,31,126134,116124
7236,563,31,126145,116130
7239,563,30,126153,116131
7241,561,30,126158,116136
7243,560,31,126173,116137
7246,560,30,126182,116146
7248,562,30,126199,116154
7251,563,30,126205,116148
7254,565,30,126211,116152
7257,565,30,126226,116150
7259,564,30,126234,116169
7262,564,30,126247,116166
7264,564,30,126258,116171
7266,563,30,126270,116176
7269,562,30,126275,116175
7271,561,30,126285,116178
7274,560,30,126305,116184
7276,557,30,126310,116189
7279,556,30,126312,116189
7281,558,30,126337,116193
7283,564,30,126328,116194
7286,580,30,126343,116199
7288,592,30,126354,116196
7291,602,30,126360,116201
7293,616,30,126365,116206
7297,624,30,126380,116209
7299,640,30,126395,116213
7302,653,30,126402,116214
7304,665,30,126414,116213
7306,676,30,126410,116213
7309,678,30,126423,116223
7311,665,30,126433,116224
7314,649,30,126433,116231
7316,626,30,126441,116230
7319,610,30,126450,116230
7321,583,30,126465,116236
7323,577,30,126463,116229
7326,570,30,126465,116234
7328,568,30,126465,116239
7331,569,30,126473,116243
7333,569,30,126487,116252
7336,568,30,126487,116242
7339,565,30,126500,116252
7342,564,30,126500,116252
7344,561,30,126512,116263
7346,561,30,126521,116254
7349,564,30,126532,116255
7351,566,30,126532,116268
7354,568,30,126539,116261
7356,568,30,126537,116271
7359,567,30,126537,116261
7361,567,30,126549,116268
7363,567,30,126558,116268
7366,568,30,126555,116271
7368,569,30,126555,116277
7371,573,30,126563,116281
7373,575,30,126569,116281
7376,576,30,126584,116277
7378,575,30,126591,116283
7382,575,30,126596,116292
7384,575,30,126598,116290
7386,575,30,126601,116290
7389,579,30,126609,116294
7391,581,30,126609,116299
7394,584,30,126615,116296
7396,584,30,126609,116296
7399,583,30,126624,116310
7401,583,30,126624,116300
7403,583,30,126631,116300
7406,584,31,126634,116300
7408,585,31,126643,116307
7411,588,30,126649,116310
7413,590,30,126649,116302
7416,589,30,126651,116314
7418,589,30,126668,116314
7421,588,31,126672,116316
7424,586,30,126672,116321
7426,585,31,126671,116319
7429,586,31,126683,116319
7431,588,30,126697,116320
7434,590,31,126699,116337
7436,589,30,126699,116326
7439,588,30,126715,116334
7441,587,30,126718,116334
7443,586,30,126728,116338
7446,584,30,126737,116342
7448,585,30,126739,116342
7451,587,30,126739,116344
7453,587,30,126735,116342
7456,586,30,126742,116342
7458,584,30,126742,116346
7461,582,31,126760,116342
7463,582,30,126750,116342
7465,581,30,126733,116343
7469,583,30,126733,116341
7471,585,31,126736,116330
7474,585,31,126694,116330
7476,585,31,126663,116318
7479,582,31,126663,116293
7481,582,31,126565,116293
7483,582,31,126508,116281
7486,582,31,126508,116221
7488,583,31,126437,116199
7491,585,31,126303,116199
7493,587,30,126224,116180
7496,586,31,126224,116113
7498,585,30,126139,116080
7501,584,31,126058,116080
7503,583,30,125938,116058
7505,582,31,125868,116043
7508,583,31,125868,115990
7511,586,31,125797,115967
7514,588,31,125666,115967
7516,588,31,125610,115944
7519,587,31,125610,115907
7521,584,31,125558,115900
7523,584,31,125514,115900
7526,583,31,125470,115891
7528,584,31,125433,115871
7531,585,31,125402,115859
7533,587,31,125378,115846
7536,585,31,125324,115842
7538,583,30,125303,115834
7541,581,31,125303,115817
7543,576,31,125297,115818
7545,575,31,125267,115818
7548,575,31,125257,115817
7550,576,30,125238,115806
7554,577,31,125242,115806
7556,574,31,125241,115801
7559,571,31,125236,115799
7561,568,31,125224,115808
7563,567,31,125224,115804
7566,565,31,125235,115804
7568,564,31,125233,115804
7571,565,31,125246,115812
7573,567,30,125255,115814
7576,566,31,125260,115809
7578,565,31,125265,115822
7581,564,31,125268,115821
7583,562,31,125290,115822
7585,561,31,125291,115832
7588,561,31,125306,115835
7590,564,31,125329,115833
7593,566,31,125341,115847
7596,566,31,125345,115842
7599,565,31,125358,115853
7601,563,30,125376,115851
7603,562,31,125379,115857
7606,562,31,125393,115861
7608,562,30,125408,115871
7611,565,30,125415,115873
7613,568,31,125437,115883
7616,568,31,125445,115886
7618,567,31,125455,115884
7621,566,31,125467,115887
7623,565,31,125476,115900
7625,565,31,125493,115891
7628,566,31,125496,115893
7630,568,30,125502,115895
7633,570,31,125510,115905
7635,571,30,125511,115900
7639,569,31,125515,115912
7641,566,31,125519,115907
7643,564,31,125519,115914
7646,564,31,125535,115909
7648,564,31,125542,115909
7651,566,31,125541,115912
7653,567,31,125553,115915
7656,566,31,125547,115922
7658,564,31,125551,115915
7661,563,31,125553,115916
7663,561,31,125552,115919
7665,560,31,125559,115919
7668,560,31,125572,115925
7670,562,31,125574,115921
7673,565,31,125572,115924
7675,565,31,125577,115931
7678,563,31,125583,115928
7681,561,31,125602,115925
7683,561,31,125609,115933
7686,561,31,125626,115938
7688,562,31,125627,115948
7691,569,31,125639,115954
7693,571,31,125653,115953
7696,572,31,125672,115955
7698,571,31,125688,115968
7701,571,31,125704,115961
7703,571,31,125714,115981
7705,571,31,125730,115986
7708,573,31,125741,115995
7710,575,31,125756,115994
7713,578,31,125773,116002
7715,578,31,125768,116006
7718,577,31,125786,115998
7720,576,31,125792,116011
7723,575,31,125808,116009
7726,574,31,125816,116015
7728,575,31,125821,116013
7731,578,31,125827,116020
7733,579,31,125848,116023
7736,578,31,125851,116023
7738,577,31,125857,116028
7741,575,31,125868,116034
7743,572,31,125874,116038
7745,572,31,125883,116031
7748,572,31,125889,116038
7750,573,31,125885,116038
7753,573,31,125883,116045
7755,571,31,125895,116036
7758,569,31,125895,116044
7760,567,31,125897,116042
7762,565,31,125902,116042
7766,563,31,125900,116047
7768,564,31,125898,116036
7771,564,31,125900,116045
7773,564,31,125905,116031
7776,563,31,125893,116028
7778,558,31,125901,116027
7781,556,31,125901,116036
7783,554,31,125893,116029
7785,551,31,125888,116029
7788,549,31,125896,116034
7790,549,31,125893,116029
7793,548,31,125893,116030
7795,546,31,125878,116017
7798,544,31,125883,116017
7800,541,31,125884,116030
7802,540,32,125887,116030
7805,539,31,125878,116026
7808,540,31,125878,116029
7811,543,31,125875,116029
7813,546,32,125878,116024
7816,546,32,125878,116020
7818,544,31,125871,116029
7821,543,31,125874,116029
7823,543,31,125872,116030
7825,544,31,125872,116028
7828,547,32,125880,116021
7830,551,32,125883,116021
7833,553,32,125890,116040
7835,554,32,125894,116032
7838,553,32,125893,116044
7840,551,32,125893,116034
7842,550,32,125906,116038
7845,548,32,125912,116047
7847,549,32,125916,116047
7851,550,32,125924,116052
7853,550,32,125924,116059
7856,548,31,125940,116063
7858,546,32,125963,116063
7861,543,32,125975,116067
7863,540,32,125980,116071
7865,538,32,125980,116076
7868,537,32,126004,116091
7870,538,32,126012,116091
7873,539,31,126031,116086
7875,537,32,126031,116092
7878,535,32,126035,116104
7880,534,32,126057,116104
7882,533,32,126073,116100
7885,531,32,126073,116102
7887,532,32,126075,116109
7890,534,32,126095,116109
7892,535,32,126116,116111
7896,535,32,126118,116121
7898,533,32,126118,116121
7901,532,32,126134,116125
7903,531,32,126144,116125
7905,530,32,126170,116132
7908,531,32,126172,116137
7910,533,32,126186,116137
7913,535,32,126186,116142
7915,533,32,126195,116152
7918,532,31,126208,116152
7920,530,32,126208,116156
7922,529,32,126231,116158
7925,529,32,126231,116158
7927,529,32,126256,116160
7930,527,32,126260,116172
7932,526,32,126270,116172
7936,520,32,126270,116176
7938,518,32,126279,116182
7941,519,32,126293,116182
7943,525,32,126293,116183
7945,533,32,126308,116186
7948,542,32,126317,116186
7950,551,32,126330,116186
7953,572,32,126330,116192
7955,581,32,126332,116200
7958,588,32,126340,116200
7960,598,32,126368,116206
7962,621,32,126368,116218
7965,630,32,126376,116218
7967,638,32,126380,116216
7970,626,32,126380,116214
7972,602,32,126389,116225
7975,583,32,126400,116225
7977,561,32,126412,116227
7981,534,32,126412,116226
7983,523,32,126413,116226
7985,517,32,126420,116226
7988,513,32,126436,116226
7990,512,32,126437,116241
7993,510,32,126437,116240
7995,507,32,126450,116240
7998,504,32,126448,116236
8000,502,32,126459,116243
8002,501,32,126459,116248
8005,499,32,126469,116249
8007,501,32,126469,116249
8010,504,32,126479,116253
8012,505,32,126483,116258
8015,506,32,126492,116253
8017,504,32,126490,116256
8020,504,32,126508,116254
8023,504,32,126509,116263
8025,504,32,126509,116266
8028,505,32,126515,116266
8030,510,32,126515,116268
8033,513,32,126527,116268
8035,513,32,126529,116264
8038,512,32,126530,116268
8040,512,32,126547,116278
8042,512,32,126547,116273
8045,511,32,126546,116278
8047,512,32,126552,116269
8050,514,32,126559,116284
8052,518,32,126565,116289
8055,517,32,126577,116284
8057,516,32,126586,116295
8060,515,32,126593,116292
8062,513,32,126595,116293
8065,513,32,126603,116292
8068,513,32,126607,116305
8070,516,32,126610,116296
8073,518,32,126622,116300
8075,518,32,126612,116307
8078,516,32,126622,116316
8080,516,32,126634,116306
8082,515,32,126644,116312
8085,515,32,126652,116315
8087,516,32,126656,116323
8090,518,32,126660,116326
8092,519,32,126668,116324
8095,519,32,126676,116327
8097,516,32,126670,116326
8100,515,32,126678,116334
8102,514,32,126690,116326
8104,513,32,126698,116337
8108,515,32,126712,116331
8110,517,32,126716,116332
8113,520,32,126710,116343
8115,521,32,126713,116334
8118,521,32,126714,116334
8120,522,32,126715,116335
8122,522,32,126720,116343
8125,522,32,126726,116338
8127,525,32,126727,116339
8130,529,32,126711,116334
8132,533,32,126702,116327
8135,533,32,126679,116328
8137,532,32,126653,116317
8140,531,32,126621,116293
8142,529,32,126566,116277
8144,529,32,126519,116268
8147,530,32,126467,116234
8150,532,32,126403,116207
8153,536,32,126315,116181
8155,536,32,126244,116164
8158,535,32,126163,116132
8160,533,32,126085,116100
8162,532,32,126015,116074
8165,533,32,125931,116039
8167,534,32,125877,116023
8170,538,32,125827,116004
8172,539,33,125753,115982
8175,538,32,125684,115954
8177,537,32,125640,115936
8180,536,32,125577,115921
8182,535,32,125520,115899
8184,535,32,125491,115888
8187,536,32,125445,115881
8189,538,32,125411,115869
8193,540,33,125373,115859
8195,539,33,125347,115846
8198,538,33,125312,115834
8200,537,32,125297,115825
8202,538,33,125284,115820
8205,537,33,125270,115822
8207,539,33,125246,115817
8210,544,33,125237,115811
8212,545,33,125239,115807
8215,545,33,125233,115806
8217,544,33,125224,115803
8220,543,33,125226,115808
8222,542,33,125238,115813
8224,543,33,125230,115804
8227,545,33,125233,115807
8229,549,33,125238,115815
8232,552,33,125248,115810
8235,552,33,125259,115812
8238,552,33,125259,115827
8240,553,33,125278,115828
8242,553,33,125298,115828
8245,554,33,125314,115844
8247,557,33,125336,115854
8250,560,33,125355,115855
8252,563,33,125366,115860
8255,564,33,125388,115868
8257,564,33,125407,115872
8260,564,34,125407,115880
8262,563,34,125449,115887
8264,564,34,125464,115887
8267,567,34,125486,115900
8269,570,34,125497,115911
8272,572,34,125497,115909
8274,572,34,125532,115922
8278,572,34,125549,115922
8280,571,34,125570,115929
8282,571,34,125570,115934
8285,571,34,125593,115942
8287,572,34,125611,115942
8290,574,34,125629,115952
8292,577,34,125644,115954
8295,577,34,125644,115955
8297,576,34,125664,115957
8300,576,34,125672,115957
8302,574,35,125684,115965
8304,575,34,125684,115966
8307,579,35,125691,115969
8309,584,35,125696,115969
8312,588,35,125715,115969
8314,596,35,125714,115975
8317,599,35,125709,115983
8320,607,35,125709,115977
8322,611,35,125719,115985
8325,614,35,125727,115989
8327,617,36,125737,115989
8330,627,36,125754,115990
8332,631,36,125754,115990
8335,635,36,125762,116003
8337,637,36,125775,116003
8340,639,36,125786,116000
8342,642,36,125786,116008
8344,644,36,125788,116009
8347,648,37,125816,116016
8349,651,37,125816,116024
8352,653,37,125849,116031
8354,654,37,125860,116031
8357,653,37,125884,116032
8359,651,37,125884,116042
8361,649,37,125901,116051
8365,649,37,125933,116052
8367,651,37,125946,116052
8370,657,38,125946,116065
8372,660,38,125973,116065
8375,663,38,125990,116079
8377,668,38,125990,116084
8380,671,38,126014,116077
8382,674,38,126034,116077
8384,677,39,126045,116087
8387,684,39,126045,116094
8389,689,39,126048,116106
8392,692,39,126072,116106
8394,694,39,126071,116103
8397,695,39,126071,116107
8399,695,39,126084,116107
8401,695,40,126085,116115
8404,696,40,126085,116113
8407,697,40,126091,116114
8410,698,40,126101,116114
8412,698,40,126097,116119
8415,696,40,126097,116120
8417,693,40,126105,116120
8420,691,40,126099,116120
8422,688,41,126099,116119
8424,687,41,126102,116119
8427,688,41,126100,116119
8429,688,41,126100,116123
8432,686,41,126104,116119
8434,684,41,126099,116118
8437,681,41,126100,116118
8439,679,42,126100,116122
8441,675,42,126100,116115
8444,674,42,126084,116115
8446,672,42,126084,116114
8450,672,42,126084,116114
8452,671,42,126093,116118
8455,671,42,126094,116118
8457,671,42,126095,116113
8460,674,43,126095,116116
8462,675,43,126085,116116
8464,678,43,126085,116114
8467,686,43,126096,116117
8469,691,43,126092,116120
8472,695,43,126091,116121
8474,698,44,126087,116115
8477,700,44,126094,116115
8479,701,44,126093,116121
8481,703,44,126091,116119
8484,703,44,126101,116128
8486,705,44,126116,116127
8489,706,44,126127,116130
8492,706,44,126127,116135
8495,703,45,126126,116130
8497,701,45,126130,116130
8500,699,45,126134,116147
8502,697,45,126143,116142
8504,695,45,126141,116132
8507,693,45,126161,116147
8509,689,45,126164,116150
8512,685,45,126166,116159
8514,680,46,126181,116157
8517,674,46,126192,116158
8519,664,46,126199,116165
8521,659,46,126208,116167
8524,655,46,126208,116175
8526,651,46,126226,116177
8529,647,46,126242,116176
8531,640,46,126248,116184
8535,635,46,126263,116186
8537,630,47,126272,116187
8540,626,46,126277,116196
8542,622,47,126295,116198
8544,618,47,126297,116204
8547,615,47,126315,116210
8549,614,47,126337,116213
8552,613,47,126338,116216
8554,612,47,126357,116219
8557,611,47,126365,116226
8559,610,47,126374,116228
8561,610,47,126390,116232
8564,612,47,126404,116233
8566,613,48,126412,116238
8569,616,48,126412,116244
8571,619,48,126426,116243
8574,621,48,126433,116246
8577,622,48,126446,116256
8580,623,48,126459,116263
8582,625,48,126474,116265
8584,627,48,126479,116269
8587,634,49,126491,116269
8589,638,49,126499,116280
8592,641,49,126511,116282
8594,642,49,126518,116282
8597,640,49,126526,116287
8599,633,49,126540,116284
8601,630,49,126531,116292
8604,629,50,126551,116289
8606,630,50,126557,116298
8609,635,50,126558,116297
8611,646,50,126568,116298
8614,652,50,126569,116305
8616,659,50,126575,116304
8620,668,50,126587,116309
8622,684,50,126590,116312
8624,691,51,126593,116322
8627,701,51,126604,116321
8629,717,51,126611,116317
8632,738,51,126619,116326
8634,742,51,126625,116328
8637,732,51,126623,116329
8639,685,51,126632,116332
8641,653,51,126643,116332
8644,625,51,126642,116337
8646,605,51,126657,116333
8649,572,51,126658,116340
8651,561,52,126666,116343
8654,553,52,126671,116343
8656,548,52,126686,116347
8659,544,52,126679,116352
8662,540,52,126693,116361
8664,539,52,126701,116353
8667,539,52,126706,116362
8669,539,52,126715,116359
8672,539,52,126723,116368
8674,539,52,126725,116368
8677,540,52,126736,116365
8679,544,53,126728,116373
8681,550,53,126741,116374
8684,557,53,126747,116371
8686,569,53,126754,116371
8689,588,53,126754,116376
8691,597,54,126750,116368
8694,603,54,126760,116374
8696,611,54,126759,116377
8699,616,54,126766,116382
8701,625,54,126774,116392
8704,630,55,126779,116381
8707,633,55,126778,116388
8709,636,55,126776,116381
8712,637,55,126778,116393
8714,636,55,126784,116393
8717,635,55,126784,116392
8719,633,55,126792,116391
8721,631,55,126790,116391
8724,627,56,126799,116394
8726,625,56,126801,116391
8729,624,56,126803,116386
8731,620,56,126821,116393
8734,618,56,126814,116398
8736,611,56,126817,116401
8739,607,56,126817,116400
8741,603,56,126829,116403
8743,600,56,126829,116403
8747,595,57,126841,116414
8749,593,57,126852,116408
8752,590,57,126852,116415
8754,586,57,126870,116423
8757,583,57,126879,116423
8759,579,57,126883,116428
8761,577,57,126883,116431
8764,575,58,126894,116428
8766,573,57,126899,116428
8769,572,58,126912,116445
8771,568,58,126920,116436
8774,566,58,126920,116443
8776,564,58,126926,116443
8779,562,58,126929,116451
8781,557,58,126930,116438
8783,555,58,126930,116450
8786,554,58,126942,116455
8788,552,58,126951,116455
8792,551,58,126956,116451
8794,547,59,126950,116449
8797,545,59,126944,116447
8799,539,59,126944,116443
8801,536,59,126941,116435
8804,534,59,126909,116438
8806,532,59,126876,116438
8809,528,59,126843,116402
8811,525,59,126843,116377
8814,520,59,126803,116362
8816,517,60,126679,116362
8819,513,59,126616,116340
8821,508,60,126616,116287
8823,505,60,126541,116262
8826,502,60,126390,116241
8828,500,60,126390,116206
8832,496,60,126236,116183
8834,494,60,126164,116183
8837,491,60,126086,116157
8839,484,60,126086,116100
8841,481,60,126009,116081
8844,478,60,125906,116081
8846,476,60,125861,116066
8849,473,60,125861,116024
8851,471,60,125730,116024
8854,467,60,125677,116007
8856,461,60,125677,115975
8859,457,60,125643,115961
8861,456,61,125565,115961
8863,454,61,125539,115949
8866,451,61,125539,115932
8868,449,60,125512,115927
8871,448,61,125467,115927
8873,445,61,125454,115917
8877,442,61,125454,115917
8879,441,61,125433,115917
8881,439,61,125417,115914
8884,436,61,125417,115904
8886,435,61,125413,115906
8889,433,61,125419,115906
8891,430,61,125416,115906
8894,425,61,125416,115907
8896,422,61,125414,115911
8899,420,61,125427,115911
8901,417,61,125427,115917
8903,415,61,125441,115920
8906,414,61,125464,115920
8908,412,61,125464,115941
8911,410,61,125485,115944
8913,407,61,125492,115949
8916,404,61,125512,115949
8919,402,61,125550,115959
8921,398,61,125550,115976
8924,397,61,125588,115976
8926,396,61,125588,115989
8929,393,61,125615,115996
8931,391,61,125638,116009
8934,389,61,125654,116009
8936,387,61,125685,116025
8939,385,61,125717,116023
8941,382,61,125741,116029
8943,381,61,125764,116045
8946,381,62,125808,116050
8948,380,61,125808,116076
8951,379,62,125832,116073
8953,379,61,125855,116073
8956,378,61,125875,116080
8958,377,61,125884,116094
8961,377,61,125912,116091
8964,377,61,125919,116100
8966,378,61,125944,116101
8969,378,62,125967,116103
8971,378,62,125967,116110
8974,377,62,125973,116110
8976,376,61,125988,116112
8979,376,62,126000,116120
8981,376,62,126000,116123
8983,377,62,126002,116125
8986,377,61,126021,116128
8988,380,61,126022,116129
8991,380,62,126029,116133
8993,380,61,126027,116127
8996,378,62,126039,116130
8998,376,62,126041,116139
9000,376,62,126054,116132
9004,376,62,126055,116137
9006,376,62,126073,116139
9009,377,62,126074,116148
9011,376,62,126078,116151
9014,376,62,126090,116151
9016,375,61,126104,116153
9019,374,61,126110,116158
9021,373,62,126124,116158
9023,373,61,126125,116160
9026,373,62,126137,116170
9028,372,62,126157,116171
9031,371,62,126163,116186
9033,370,62,126166,116187
9036,368,62,126183,116192
9038,368,62,126188,116198
9040,367,62,126196,116194
9043,367,62,126206,116193
9046,367,62,126204,116198
9049,368,62,126225,116202
9051,368,62,126233,116196
9054,367,62,126230,116209
9056,366,62,126241,116205
9059,365,62,126246,116210
9061,365,62,126246,116213
9063,365,62,126248,116217
9066,365,62,126260,116218
9068,366,61,126261,116218
9071,366,62,126261,116220
9073,366,62,126257,116216
9076,365,62,126269,116211
9078,365,62,126260,116212
9080,365,62,126252,116221
9083,365,62,126257,116211
9085,366,62,126243,116212
9089,368,62,126247,116210
9091,369,62,126245,116212
9094,369,62,126253,116212
9096,368,62,126247,116216
9099,368,62,126243,116212
9101,369,62,126232,116208
9103,370,62,126231,116211
9106,371,62,126228,116200
9108,372,62,126220,116206
9111,373,62,126208,116200
9113,375,62,126199,116200
9116,376,62,126201,116197
9118,376,62,126199,116192
9120,376,62,126188,116194
9123,377,62,126188,116186
9125,378,62,126182,116197
9128,380,62,126174,116189
9131,381,62,126182,116196
9134,381,62,126182,116195
9136,379,62,126174,116194
9139,379,62,126184,116196
9141,378,62,126179,116192
9143,377,62,126180,116203
9146,376,62,126176,116197
9148,375,62,126183,116197
9151,375,62,126191,116205
9153,372,62,126192,116201
9156,371,62,126203,116202
9158,369,62,126210,116207
9160,368,62,126214,116211
9163,368,62,126224,116216
9165,367,62,126223,116218
9168,366,62,126237,116215
9170,364,62,126245,116221
9174,363,62,126252,116221
9176,362,62,126265,116231
9179,361,62,126278,116233
9181,361,62,126284,116237
9183,361,62,126288,116237
9186,364,62,126311,116241
9188,366,62,126311,116245
9191,367,62,126311,116244
9193,367,62,126324,116249
9196,368,61,126341,116249
9198,368,62,126351,116263
9200,369,62,126358,116253
9203,372,62,126369,116263
9205,374,62,126369,116270
9208,376,62,126386,116276
9210,377,62,126387,116277
9213,377,62,126387,116281
9216,377,62,126408,116287
9219,378,62,126421,116287
9221,378,62,126431,116292
9223,379,62,126440,116294
9226,380,62,126447,116303
9228,379,62,126447,116302
9231,375,62,126466,116304
9233,367,62,126472,116305
9236,362,62,126472,116311
9238,356,62,126496,116314
9240,354,62,126497,116314
9243,353,61,126508,116313
9245,355,62,126508,116320
9248,358,62,126517,116317
9250,360,61,126534,116317
9253,362,61,126551,116325
9255,362,61,126553,116330
9259,362,61,126556,116342
9261,367,61,126566,116339
9263,372,61,126570,116339
9266,391,61,126583,116342
9268,394,60,126583,116344
9271,383,61,126592,116350
9273,363,60,126599,116350
9276,331,60,126613,116352
9278,278,60,126613,116353
9280,247,60,126621,116359
9283,229,60,126629,116359
9285,215,60,126635,116364
9288,205,60,126636,116359
9290,194,59,126636,116365
9293,190,59,126647,116372
9295,187,59,126657,116372
9298,184,59,126670,116371
9300,182,59,126670,116375
9303,183,59,126673,116376
9306,185,59,126672,116376
9308,188,58,126687,116382
9311,190,58,126689,116382
9313,195,58,126689,116377
9316,197,58,126692,116386
9318,199,58,126698,116386
9320,201,58,126703,116384
9323,206,58,126713,116387
9325,209,58,126708,116387
9328,215,57,126708,116391
9330,219,57,126712,116389
9333,221,57,126723,116389
9335,223,57,126723,116399
9338,225,57,126730,116398
9340,227,57,126736,116398
9342,229,57,126737,116399
9346,235,57,126737,116400
9348,238,57,126746,116407
9351,240,57,126757,116407
9353,242,57,126761,116407
9356,245,56,126761,116412
9358,247,56,126765,116412
9360,250,56,126768,116412
9363,256,56,126768,116418
9365,261,56,126785,116420
9368,264,56,126785,116420
9370,268,56,126785,116421
9373,273,56,126785,116423
9375,276,56,126794,116418
9378,278,56,126795,116418
9380,281,56,126815,116429
9382,284,56,126811,116429
9385,293,55,126811,116428
9388,299,55,126825,116433
9391,302,55,126822,116433
9393,304,55,126829,116433
9396,307,55,126829,116432
9398,313,55,126831,116432
9400,316,55,126840,116432
9403,320,55,126837,116445
9405,323,55,126851,116445
9408,327,55,126854,116447
9410,333,55,126866,116449
9413,335,55,126867,116446
9415,336,55,126862,116454
9418,337,55,126862,116454
9420,340,55,126872,116450
9422,342,55,126864,116450
9425,345,55,126869,116453
9427,349,54,126868,116448
9431,351,54,126863,116449
9433,354,54,126860,116445
9436,355,54,126855,116444
9438,356,54,126830,116442
9440,358,54,126830,116419
9443,358,54,126805,116419
9445,361,54,126755,116399
9448,363,54,126721,116384
9450,366,54,126665,116367
9453,367,54,126611,116347
9455,368,54,126543,116318
9458,368,54,126468,116291
9460,369,54,126400,116269
9462,370,54,126320,116236
9465,372,54,126250,116210
9467,376,54,126164,116186
9470,377,54,126093,116158
9473,377,54,126014,116121
9476,378,53,125970,116110
9478,378,53,125923,116091
9480,378,54,125862,116078
9483,380,53,125792,116048
9485,381,53,125732,116031
9488,384,53,125676,116006
9490,386,53,125632,115994
9493,387,53,125588,115982
9495,388,53,125542,115967
9498,389,53,125510,115957
9500,390,53,125482,115942
9502,391,53,125462,115931
9505,395,53,125437,115930
9507,396,53,125416,115923
9510,398,53,125398,115923
9512,400,53,125374,115913
9516,400,53,125364,115907
9518,400,53,125344,115903
9520,400,53,125334,115907
9523,400,53,125332,115898
9525,400,53,125328,115902
9528,402,52,125329,115900
9530,403,53,125337,115905
9533,403,52,125335,115905
9535,402,52,125336,115896
9538,401,52,125343,115910
9540,400,52,125352,115910
9542,400,52,125355,115914
9545,401,52,125375,115911
9547,403,52,125386,115924
9550,404,52,125397,115931
9552,404,52,125414,115933
9555,404,52,125434,115943
9558,403,52,125446,115953
9560,403,52,125477,115951
9563,403,52,125493,115962
9565,404,52,125510,115970
9568,409,52,125531,115978
9570,410,52,125545,115986
9573,410,52,125574,115985
9575,411,52,125598,115999
9578,412,52,125607,116007
9580,413,52,125619,116003
9582,415,52,125639,116023
9585,418,52,125659,116019
9587,421,52,125682,116024
9590,425,51,125685,116027
9592,429,51,125695,116044
9595,430,52,125716,116040
9597,433,52,125729,116046
9600,435,52,125741,116047
9603,437,51,125750,116049
9605,440,51,125747,116052
9608,447,51,125762,116059
9610,450,51,125773,116054
9613,452,51,125775,116058
9615,454,51,125784,116065
9618,457,52,125787,116064
9620,462,51,125791,116063
9622,464,51,125785,116073
9625,466,51,125798,116063
9627,470,51,125800,116067
9630,474,51,125797,116062
9632,475,51,125806,116066
9635,476,51,125802,116067
9637,477,51,125813,116073
9639,477,51,125824,116073
9643,479,51,125823,116082
9645,482,51,125830,116074
9648,484,51,125847,116082
9650,486,51,125857,116082
9653,486,51,125871,116088
9655,485,51,125887,116094
9658,485,51,125887,116092
9660,485,51,125916,116106
9662,486,51,125921,116106
9665,488,51,125942,116117
9667,490,51,125962,116114
9670,491,51,125962,116127
9672,492,51,125982,116127
9675,492,51,126001,116127
9677,492,51,126025,116144
9679,493,51,126030,116141
9682,494,51,126040,116144
9684,495,51,126040,116144
9688,497,51,126057,116144
9690,500,51,126065,116156
9693,500,51,126065,116155
9695,500,51,126076,116157
9698,501,51,126079,116157
9700,502,51,126094,116171
9702,503,51,126094,116163
9705,505,51,126101,116165
9707,507,51,126106,116165
9710,508,51,126109,116169
9712,509,51,126114,116170
9715,509,51,126116,116178
9717,509,51,126116,116173
9719,510,51,126116,116178
9722,511,51,126112,116172
9724,513,51,126113,116172
9728,516,51,126105,116171
9730,517,51,126105,116175
9733,516,51,126113,116170
9735,515,51,126103,116170
9738,514,51,126104,116166
9740,514,51,126098,116162
9742,514,51,126098,116163
9745,515,51,126087,116162
9747,517,51,126088,116162
9750,518,51,126088,116160
9752,517,51,126088,116159
9755,517,51,126088,116155
9757,517,51,126079,116155
9759,517,51,126077,116164
9762,519,51,126075,116153
9764,521,51,126075,116153
9767,522,51,126074,116153
9769,524,51,126076,116154
9773,524,51,126075,116157
9775,524,51,126075,116157
9778,525,51,126078,116157
9780,526,51,126080,116157
9782,527,51,126080,116155
9785,530,51,126084,116158
9787,531,51,126083,116158
9790,534,51,126083,116161
9792,534,51,126097,116161
9795,533,51,126092,116161
9797,532,51,126092,116167
9799,532,51,126103,116163
9802,531,51,126102,116163
9804,531,51,126119,116169
9807,532,51,126123,116171
9809,533,51,126132,116171
9812,532,51,126132,116177
9815,531,51,126141,116188
9818,530,51,126154,116188
9820,527,51,126154,116189
9822,527,51,126175,116197
9825,527,51,126183,116197
9827,528,51,126191,116197
9830,528,51,126191,116200
9832,527,51,126199,116202
9835,526,51,126203,116202
9837,525,51,126229,116211
9839,524,51,126229,116222
9842,525,51,126240,116222
9844,525,51,126249,116221
9847,527,51,126249,116229
9849,528,51,126266,116229
9852,529,51,126289,116229
9854,528,51,126294,116232
9858,528,51,126294,116246
9860,528,51,126305,116245
9862,529,51,126318,116245
9865,531,51,126340,116248
9867,533,51,126348,116257
9870,536,51,126348,116255
9872,537,51,126361,116257
9875,537,51,126373,116257
9877,536,51,126382,116270
9879,536,51,126382,116272
9882,532,51,126395,116272
9884,531,51,126394,116272
9887,530,51,126402,116275
9889,531,51,126415,116286
9892,533,51,126421,116278
9894,543,51,126429,116287
9897,552,51,126445,116286
9900,561,51,126456,116293
9902,572,51,126456,116296
9905,598,51,126467,116299
9907,611,51,126468,116299
9910,622,51,126474,116302
9912,637,51,126475,116292
9915,651,51,126478,116304
9917,671,51,126496,116307
9919,686,51,126502,116315
9922,686,51,126502,116305
9924,654,51,126505,116309
9927,636,51,126518,116321
9929,615,51,126528,116313
9932,596,51,126531,116314
9934,571,51,126542,116318
9937,564,51,126554,116320
9939,558,51,126540,116319
9942,554,51,126555,116327
9945,550,51,126558,116333
9947,549,51,126569,116331
9950,549,51,126575,116337
9952,547,51,126576,116338
9955,545,51,126580,116333
9957,543,51,126578,116339
9959,542,51,126598,116336
9962,542,51,126613,116341
9964,543,51,126608,116341
9967,545,51,126613,116345
9969,546,51,126623,116349
9972,547,51,126620,116354
9974,547,51,126631,116356
9977,547,52,126626,116358
9979,548,52,126636,116354
9981,549,52,126637,116359
9985,551,51,126646,116363
9987,555,51,126651,116366
9990,558,52,126652,116362
9992,558,52,126671,116364
9995,559,52,126658,116369
9997,560,52,126675,116371
9999,560,52,126671,116365
10002,563,52,126674,116370
10004,564,52,126679,116381
10007,566,52,126683,116375
10009,568,52,126700,116378
10012,569,52,126701,116379
10014,569,51,126699,116375
10017,569,52,126695,116380
10019,570,52,126711,116381
10021,570,52,126716,116385
10024,571,52,126716,116387
10027,572,52,126721,116393
10030,573,52,126725,116388
10032,571,52,126737,116393
10035,570,52,126738,116400
10037,569,52,126746,116400
10039,568,52,126754,116402
10042,567,52,126756,116402
10044,568,52,126751,116414
10047,568,52,126764,116407
10049,569,52,126762,116414
10052,567,52,126768,116407
10054,564,52,126769,116416
10057,563,52,126783,116418
10059,562,52,126793,116421
10061,562,52,126796,116426
10064,561,52,126796,116427
10066,562,52,126802,116425
10070,562,52,126805,116430
10072,560,52,126812,116429
10075,559,52,126809,116432
10077,557,52,126809,116434
10079,556,52,126807,116425
10082,555,52,126802,116426
10084,555,52,126776,116414
10087,556,52,126757,116382
10089,556,52,126734,116398
10092,555,52,126692,116382
10094,553,52,126642,116363
10097,551,52,126604,116340
10099,548,52,126531,116313
10101,547,52,126463,116288
10104,547,52,126396,116252
10106,547,52,126305,116230
10109,545,52,126220,116197
10112,542,52,126150,116168
10115,540,52,126150,116138
10117,537,52,125981,116113
10119,535,52,125921,116113
10122,530,52,125868,116076
10124,528,52,125807,116047
10127,526,52,125746,116027
10129,523,52,125672,116004
10132,519,52,125617,115982
10134,510,52,125574,115967
10137,505,52,125574,115948
10139,500,52,125484,115941
10141,497,52,125449,115941
10144,491,52,125418,115921
10146,488,52,125379,115910
10149,485,52,125379,115902
10151,480,52,125330,115892
10155,476,52,125310,115892
10157,467,51,125289,115887
10159,463,52,125289,115872
10162,459,51,125261,115869
10164,457,51,125250,115869
10167,456,51,125257,115870
10169,453,51,125246,115865
10172,450,51,125246,115854
10174,447,51,125239,115865
10177,445,51,125243,115865
10179,441,51,125238,115866
10181,440,51,125238,115865
10184,441,51,125258,115871
10186,442,51,125262,115871
10189,442,51,125272,115873
10191,441,51,125284,115874
10194,440,51,125300,115893
10196,439,50,125300,115893
10199,439,50,125309,115901
10202,439,50,125339,115907
10204,440,50,125353,115907
10207,442,50,125377,115915
10209,442,50,125377,115923
10212,441,50,125394,115933
10214,440,50,125416,115933
10217,438,50,125443,115937
10219,437,50,125443,115946
10221,436,50,125453,115949
10224,436,50,125483,115953
10226,437,50,125483,115964
10229,437,50,125520,115969
10231,436,50,125532,115969
10234,434,50,125558,115971
10236,429,49,125558,115982
10238,428,49,125563,115989
10242,426,49,125588,115988
10244,426,49,125597,115988
10247,427,49,125597,115996
10249,427,49,125616,115996
10252,426,49,125627,116007
10254,423,49,125627,116001
10257,421,49,125644,116006
10259,420,49,125648,116006
10261,419,49,125657,116007
10264,421,49,125665,116011
10266,422,49,125671,116011
10269,424,49,125671,116011
10271,424,48,125679,116014
10274,424,48,125679,116014
10276,424,48,125679,116018
10278,424,48,125699,116024
10281,424,48,125690,116024
10284,425,48,125706,116022
10287,430,48,125706,116026
10289,432,48,125711,116028
10292,432,48,125717,116028
10294,433,48,125733,116032
10297,434,48,125733,116039
10299,434,48,125745,116039
10301,435,48,125762,116048
10304,439,48,125762,116054
10306,443,48,125769,116050
10309,445,48,125783,116050
10311,447,47,125805,116056
10314,447,48,125805,116066
10316,448,48,125811,116069
10318,449,47,125829,116069
10321,450,47,125862,116075
10323,452,47,125868,116082
10327,457,47,125868,116085
10329,459,47,125881,116090
10332,460,47,125895,116090
10334,461,47,125904,116099
10337,462,47,125904,116100
10339,463,47,125925,116102
10341,464,47,125929,116102
10344,466,47,125941,116109
10346,468,47,125951,116109
10349,470,47,125953,116113
10351,472,47,125975,116124
10354,473,47,125978,116119
10356,473,47,125982,116124
10358,474,47,125982,116120
10361,476,47,125991,116125
10363,478,47,125991,116125
10366,481,47,125994,116129
10369,484,47,125996,116126
10372,486,46,125991,116126
10374,486,47,126001,116124
10377,487,46,125996,116124
10379,487,47,125996,116131
10381,490,47,126001,116131
10384,492,46,126000,116127
10386,495,46,125992,116124
10389,498,46,125991,116120
10391,502,46,125995,116121
10394,502,47,125991,116119
10396,503,46,125988,116119
10398,504,46,125995,116121
10401,505,46,125984,116121
10403,510,47,125985,116119
10406,512,46,125978,116117
10408,515,46,125983,116121
10412,518,46,125984,116115
10414,518,46,125980,116115
10417,518,46,125975,116116
10419,519,46,125981,116114
10421,520,46,125975,116121
10424,522,46,125968,116113
10426,530,46,125971,116122
10429,532,46,125978,116122
10431,533,46,125987,116118
10434,534,46,125991,116116
10436,536,46,125999,116125
10438,537,46,126007,116121
10441,538,46,126007,116130
10443,540,46,126018,116127
10446,543,46,126011,116126
10448,544,46,126025,116135
10451,546,46,126025,116137
10454,548,46,126041,116140
10457,549,46,126057,116149
10459,551,46,126066,116144
10461,551,46,126075,116149
10464,552,46,126090,116152
10466,554,46,126098,116155
10469,556,46,126104,116168
10471,557,46,126113,116168
10474,557,46,126126,116176
10476,557,46,126139,116177
10478,557,46,126144,116180
10481,558,46,126147,116177
10483,560,46,126160,116190
10486,562,46,126179,116185
10488,565,46,126191,116189
10491,567,46,126199,116195
10493,569,47,126219,116199
10497,571,47,126220,116199
10499,573,46,126233,116213
10501,575,47,126252,116220
10504,579,46,126243,116219
10506,585,47,126253,116221
10509,589,47,126267,116224
10511,593,47,126276,116227
10514,595,47,126292,116233
10516,596,47,126305,116239
10518,597,47,126308,116234
10521,600,47,126319,116239
10523,602,47,126329,116241
10526,605,47,126342,116257
10528,608,47,126345,116257
10531,610,47,126368,116257
10533,611,47,126372,116268
10536,613,47,126394,116264
10539,615,47,126408,116272
10541,618,47,126414,116274
10544,623,47,126415,116277
10546,629,48,126420,116280
10549,635,47,126443,116284
10551,638,48,126447,116289
10554,639,48,126466,116290
10556,643,48,126475,116304
10558,649,48,126491,116298
10561,656,48,126488,116302
10563,669,48,126501,116306
10566,695,48,126508,116314
10568,711,49,126518,116309
10571,724,49,126528,116315
10573,742,49,126532,116317
10576,755,49,126541,116320
10578,784,49,126553,116321
10580,805,49,126556,116324
10584,824,49,126566,116321
10586,851,50,126568,116330
10589,870,50,126579,116328
10591,860,50,126580,116333
10594,844,50,126580,116335
10596,818,50,126594,116340
10598,801,50,126599,116340
10601,770,51,126608,116350
10603,761,51,126605,116345
10606,756,51,126616,116345
10608,752,51,126618,116345
10611,750,51,126625,116347
10613,742,51,126634,116353
10616,738,51,126634,116361
10618,735,51,126639,116355
10620,733,52,126644,116355
10624,730,52,126657,116366
10626,729,52,126658,116367
10629,727,52,126658,116365
10631,724,52,126672,116365
10634,721,52,126683,116365
10636,716,52,126681,116378
10638,714,52,126681,116377
10641,711,52,126691,116375
10643,711,52,126707,116375
10646,711,53,126715,116385
10648,710,53,126719,116382
10651,709,53,126719,116392
10653,708,53,126737,116386
10656,708,53,126734,116386
10658,710,53,126743,116399
10660,711,53,126743,116398
10663,714,54,126754,116401
10665,717,54,126759,116401
10669,719,54,126775,116396
10671,723,54,126768,116402
10674,724,54,126773,116411
10676,726,54,126773,116405
10678,727,54,126776,116405
10681,729,55,126781,116410
10683,730,55,126798,116410
10686,733,55,126796,116410
10688,733,55,126796,116420
10691,732,55,126807,116422
10693,731,55,126818,116422
10696,729,55,126821,116427
10698,727,55,126821,116429
10700,726,56,126825,116434
10703,726,56,126840,116437
10705,725,56,126840,116439
10708,723,56,126850,116440
10711,721,56,126859,116440
10714,718,56,126863,116440
10716,713,56,126863,116444
10718,710,56,126864,116448
10721,708,56,126879,116448
10723,705,56,126889,116453
10726,702,57,126885,116445
10728,700,57,126896,116445
10731,698,57,126901,116450
10733,692,57,126901,116458
10736,688,57,126917,116463
10738,684,57,126925,116472
10740,682,57,126925,116465
10743,681,57,126929,116465
10745,681,58,126898,116465
10748,680,57,126921,116469
10750,677,58,126921,116463
10754,674,58,126911,116463
10756,672,58,126902,116453
10758,671,58,126873,116448
10761,668,58,126873,116426
10763,667,58,126826,116401
10766,666,58,126727,116401
10768,665,58,126674,116381
10771,663,58,126674,116334
10773,662,58,126539,116334
10776,658,58,126539,116279
10778,656,58,126458,116257
10780,655,59,126374,116257
10783,654,59,126233,116226
10785,654,59,126146,116203
10788,651,59,126146,116136
10790,648,59,126069,116106
10793,646,59,125936,116106
10796,642,59,125879,116095
10798,640,59,125879,116061
10801,635,59,125831,116037
10803,634,59,125778,116037
10806,632,59,125654,116020
10808,630,59,125598,116004
10811,623,60,125598,115961
10813,619,60,125560,115952
10816,615,60,125493,115952
10818,613,60,125493,115943
10820,607,60,125481,115943
10823,604,60,125422,115927
10825,602,60,125410,115926
10828,596,60,125410,115909
10830,591,60,125393,115912
