,S20,S21,S22
0,-0.0419769287109375,0.0092010498046875,-0.2111663818359375
1,-0.03936767578125,0.0112152099609375,-0.2097015380859375
2,-0.0316314697265625,0.0133209228515625,-0.2080078125
3,-0.017669677734375,0.0161590576171875,-0.20562744140625
4,-0.0100250244140625,0.0167999267578125,-0.207550048828125
5,-0.01226806640625,0.0174407958984375,-0.2073211669921875
6,-0.0110321044921875,0.0150604248046875,-0.2073211669921875
7,0.0060882568359375,0.0121307373046875,-0.20819091796875
8,0.0380859375,0.0095672607421875,-0.2091064453125
9,0.0816650390625,0.0089263916015625,-0.20928955078125
10,0.1230010986328125,0.00897216796875,-0.2079620361328125
11,0.1671295166015625,0.0089263916015625,-0.2054901123046875
12,0.2148284912109375,0.0081939697265625,-0.2039337158203125
13,0.2559356689453125,0.0090179443359375,-0.2040252685546875
14,0.2781829833984375,0.0092926025390625,-0.2024688720703125
15,0.2769012451171875,0.0108489990234375,-0.2004547119140625
16,0.271636962890625,0.0121307373046875,-0.1994476318359375
17,0.2785491943359375,0.0120391845703125,-0.2000885009765625
18,0.2862396240234375,0.0119476318359375,-0.19793701171875
19,0.29571533203125,0.0135040283203125,-0.1951446533203125
20,0.31732177734375,0.0141448974609375,-0.1940460205078125
21,0.3494110107421875,0.0136871337890625,-0.1926727294921875
22,0.3844757080078125,0.0141448974609375,-0.1926727294921875
23,0.435150146484375,0.0147857666015625,-0.1938629150390625
24,0.5255584716796875,0.0158843994140625,-0.1938629150390625
25,0.6181182861328125,0.0167083740234375,-0.193359375
26,0.6191253662109375,0.0159759521484375,-0.1921234130859375
27,0.5197906494140625,0.0140533447265625,-0.1926727294921875
28,0.4048004150390625,0.0116729736328125,-0.1929473876953125
29,0.302398681640625,0.01153564453125,-0.1935882568359375
30,0.2122650146484375,0.0112152099609375,-0.1912994384765625
31,0.1503753662109375,0.0113983154296875,-0.187591552734375
32,0.14556884765625,0.0109405517578125,-0.1852569580078125
33,0.2027435302734375,0.0104827880859375,-0.1832427978515625
34,0.25433349609375,0.0092926025390625,-0.18072509765625
35,0.2786407470703125,0.01153564453125,-0.180267333984375
36,0.271728515625,0.010894775390625,-0.1811370849609375
37,0.2477874755859375,0.0113525390625,-0.1808624267578125
38,0.2164764404296875,0.0116729736328125,-0.1793975830078125
39,0.19134521484375,0.0113983154296875,-0.179351806640625
40,0.172027587890625,0.011810302734375,-0.1803131103515625
41,0.1633758544921875,0.010894775390625,-0.181182861328125
42,0.1676788330078125,0.0115814208984375,-0.1815948486328125
43,0.1662139892578125,0.0146026611328125,-0.1815948486328125
44,0.1523895263671875,0.015609741210937498,-0.1814117431640625
45,0.121124267578125,0.0160675048828125,-0.1815032958984375
46,0.0772705078125,0.015106201171875,-0.1823272705078125
47,0.027099609375,0.01446533203125,-0.1838836669921875
48,-0.0215606689453125,0.0130462646484375,-0.1836090087890625
49,-0.056854248046875,0.0109405517578125,-0.1847076416015625
50,-0.08203125,0.0081939697265625,-0.186126708984375
51,-0.0980987548828125,0.0061798095703125,-0.188507080078125
52,-0.1055145263671875,0.005126953125,-0.1890106201171875
53,-0.1062469482421875,0.0039825439453125,-0.18878173828125
54,-0.1090850830078125,0.003021240234375,-0.187408447265625
55,-0.113800048828125,0.0018768310546875,-0.1873626708984375
56,-0.1213531494140625,0.0022430419921875,-0.1869049072265625
57,-0.1318817138671875,0.0028839111328125,-0.1873626708984375
58,-0.1411285400390625,0.0029754638671875,-0.1894683837890625
59,-0.14520263671875,0.0019683837890625,-0.1905670166015625
60,-0.1484527587890625,0.0002288818359375,-0.1915740966796875
61,-0.1510162353515625,0.0010528564453125,-0.1923065185546875
62,-0.1571502685546875,0.0013275146484375,-0.1938629150390625
63,-0.1593475341796875,0.0007781982421875,-0.1941375732421875
64,-0.1629180908203125,-0.0007781982421875,-0.1945037841796875
65,-0.1630096435546875,-0.00128173828125,-0.1943206787109375
66,-0.1640167236328125,-0.0016937255859375,-0.1948699951171875
67,-0.1620025634765625,-0.0010528564453125,-0.19647216796875
68,-0.1627349853515625,-0.0006866455078125,-0.2001800537109375
69,-0.163055419921875,-0.0003204345703125,-0.2041168212890625
70,-0.163330078125,-0.0014190673828125,-0.2074127197265625
71,-0.1652984619140625,-0.00018310546875,-0.2094268798828125
72,-0.16534423828125,0.000640869140625,-0.2128143310546875
73,-0.1646575927734375,0.0037994384765625,-0.2139129638671875
74,-0.1638336181640625,0.0025177001953125,-0.21533203125
75,-0.1641082763671875,4.57763671875e-05,-0.2174835205078125
76,-0.1631927490234375,-0.0005035400390625,-0.2205047607421875
77,-0.160675048828125,4.57763671875e-05,-0.2238922119140625
78,-0.1548614501953125,0.0005950927734375,-0.2270050048828125
79,-0.1512908935546875,-0.0008697509765625,-0.228607177734375
80,-0.1475830078125,-0.0001373291015625,-0.2306671142578125
81,-0.1453399658203125,0.0011444091796875,-0.2309417724609375
82,-0.1477203369140625,4.57763671875e-05,-0.2325897216796875
83,-0.1519317626953125,-0.0015106201171875,-0.2338714599609375
84,-0.1548614501953125,-0.0025177001953125,-0.2366180419921875
85,-0.15545654296875,-0.0036163330078125,-0.236663818359375
86,-0.1529388427734375,-0.00640869140625,-0.2380828857421875
87,-0.1489105224609375,-0.008331298828125,-0.2402801513671875
88,-0.14776611328125,-0.0094757080078125,-0.241607666015625
89,-0.1436004638671875,-0.00750732421875,-0.2424774169921875
90,-0.1395263671875,-0.0032501220703125,-0.2422027587890625
91,-0.1351776123046875,0.0003204345703125,-0.243621826171875
92,-0.1322479248046875,0.0019683837890625,-0.243621826171875
93,-0.1305084228515625,0.0015106201171875,-0.2427520751953125
94,-0.1294097900390625,0.00274658203125,-0.2412872314453125
95,-0.1272125244140625,0.0019683837890625,-0.240234375
96,-0.1230926513671875,4.57763671875e-05,-0.2383575439453125
97,-0.1205291748046875,-0.0005035400390625,-0.2375335693359375
98,-0.12139892578125,-0.00274658203125,-0.2372589111328125
99,-0.1242828369140625,-0.00201416015625,-0.2354278564453125
100,-0.1252899169921875,-0.0001373291015625,-0.2336883544921875
101,-0.12483215332031249,0.0024261474609375,-0.2329559326171875
102,-0.12419128417968749,0.0073699951171875,-0.2297515869140625
103,-0.12359619140625,0.01556396484375,-0.2267303466796875
104,-0.12345886230468749,0.02508544921875,-0.2241668701171875
105,-0.12400817871093751,0.0274658203125,-0.2227020263671875
106,-0.1261138916015625,0.0255889892578125,-0.2195892333984375
107,-0.12492370605468749,0.0229339599609375,-0.2172088623046875
108,-0.1223602294921875,0.0193634033203125,-0.21405029296875
109,-0.1186065673828125,0.0196380615234375,-0.2094268798828125
110,-0.1175994873046875,0.0202789306640625,-0.2036590576171875
111,-0.1187896728515625,0.0220184326171875,-0.19903564453125
112,-0.1223602294921875,0.0287933349609375,-0.1938629150390625
113,-0.1271209716796875,0.03607177734375,-0.187225341796875
114,-0.13092041015625,0.04376220703125,-0.1807708740234375
115,-0.13421630859375,0.0535125732421875,-0.17413330078125
116,-0.131561279296875,0.05877685546875,-0.1676788330078125
117,-0.12689208984375,0.0600128173828125,-0.1598052978515625
118,-0.1242828369140625,0.06353759765625,-0.1534423828125
119,-0.1191558837890625,0.0682525634765625,-0.1450653076171875
120,-0.11517333984375,0.0738372802734375,-0.1355438232421875
121,-0.1143035888671875,0.07525634765625,-0.125885009765625
122,-0.1151275634765625,0.0698089599609375,-0.1158599853515625
123,-0.11883544921875,0.0622100830078125,-0.1068878173828125
124,-0.12689208984375,0.0556182861328125,-0.0967254638671875
125,-0.1302337646484375,0.0516815185546875,-0.0858306884765625
126,-0.1304168701171875,0.0506744384765625,-0.076171875
127,-0.1302337646484375,0.050079345703125,-0.0657806396484375
128,-0.1300506591796875,0.0465087890625,-0.0554351806640625
129,-0.1299591064453125,0.0390472412109375,-0.0459136962890625
130,-0.1275787353515625,0.0292510986328125,-0.0369415283203125
131,-0.1213531494140625,0.0189056396484375,-0.0296173095703125
132,-0.1127471923828125,0.0123138427734375,-0.0219268798828125
133,-0.107666015625,0.0092010498046875,-0.0140533447265625
134,-0.1054229736328125,0.0049896240234375,-0.0073699951171875
135,-0.1066131591796875,0.0025177001953125,-0.000640869140625
136,-0.109130859375,0.00457763671875,0.0074615478515625
137,-0.1110992431640625,0.00604248046875,0.0148773193359375
138,-0.1105499267578125,0.0087432861328125,0.0209197998046875
139,-0.1077117919921875,0.0102996826171875,0.0276947021484375
140,-0.1030426025390625,0.0109405517578125,0.0327301025390625
141,-0.1029510498046875,0.0116729736328125,0.037994384765625
142,-0.1044158935546875,0.01483154296875,0.0417022705078125
143,-0.1059722900390625,0.01300048828125,0.0441741943359375
144,-0.1047821044921875,0.009063720703125,0.0472869873046875
145,-0.1018524169921875,0.00311279296875,0.0506744384765625
146,-0.1001129150390625,-0.0029754638671875,0.0536956787109375
147,-0.1015777587890625,-0.009979248046875,0.0588226318359375
148,-0.1024017333984375,-0.0147857666015625,0.0629425048828125
149,-0.099884033203125,-0.0165252685546875,0.0663299560546875
150,-0.098052978515625,-0.0168914794921875,0.0677032470703125
151,-0.09722900390625,-0.0184478759765625,0.0684356689453125
152,-0.09759521484375,-0.01922607421875,0.0684356689453125
153,-0.1017608642578125,-0.0194549560546875,0.0699920654296875
154,-0.1067047119140625,-0.0207366943359375,0.0705413818359375
155,-0.1107330322265625,-0.02215576171875,0.0709991455078125
156,-0.115814208984375,-0.0231170654296875,0.07269287109375
157,-0.1184234619140625,-0.0223846435546875,0.0736083984375
158,-0.119842529296875,-0.0200958251953125,0.07379150390625
159,-0.1238250732421875,-0.0166168212890625,0.073333740234375
160,-0.1286773681640625,-0.0144195556640625,0.0713653564453125
161,-0.1308746337890625,-0.014923095703125,0.0692596435546875
162,-0.1300506591796875,-0.0132293701171875,0.06866455078125
163,-0.1281280517578125,-0.0114898681640625,0.0674285888671875
164,-0.12615966796875,-0.00970458984375,0.06610107421875
165,-0.126434326171875,-0.0098419189453125,0.0668792724609375
166,-0.12409973144531249,-0.0111236572265625,0.0662384033203125
167,-0.122222900390625,-0.0129547119140625,0.0664215087890625
168,-0.1209869384765625,-0.01593017578125,0.0666046142578125
169,-0.1218109130859375,-0.017669677734375,0.0655059814453125
170,-0.125701904296875,-0.0175323486328125,0.0628509521484375
171,-0.1273040771484375,-0.01995849609375,0.0592803955078125
172,-0.12908935546875,-0.0244903564453125,0.0570831298828125
173,-0.131744384765625,-0.0265045166015625,0.0574493408203125
174,-0.1332550048828125,-0.0283355712890625,0.0573577880859375
175,-0.1343994140625,-0.0285186767578125,0.0546112060546875
176,-0.1360015869140625,-0.0200042724609375,0.0536956787109375
177,-0.1351776123046875,-0.0097503662109375,0.05419921875
178,-0.132293701171875,-0.0040740966796875,0.0540618896484375
179,-0.12725830078125,-0.0022430419921875,0.0530548095703125
180,-0.120391845703125,0.0087432861328125,0.054290771484375
181,-0.11114501953125,0.0335540771484375,0.0531005859375
182,-0.1039581298828125,0.0647735595703125,0.05108642578125
183,-0.1004791259765625,0.0985107421875,0.0502166748046875
184,-0.0953521728515625,0.1270294189453125,0.049530029296875
185,-0.0880279541015625,0.15618896484375,0.0475616455078125
186,-0.0825347900390625,0.1848907470703125,0.0456390380859375
187,-0.0762176513671875,0.1999053955078125,0.0441741943359375
188,-0.07196044921875,0.19500732421875,0.0438995361328125
189,-0.0718231201171875,0.1696014404296875,0.0434417724609375
190,-0.0757598876953125,0.1446990966796875,0.0408782958984375
191,-0.0762176513671875,0.1353607177734375,0.0394134521484375
192,-0.0746612548828125,0.1342620849609375,0.0398712158203125
193,-0.07379150390625,0.139251708984375,0.0395050048828125
194,-0.07049560546875,0.1575164794921875,0.03753662109375
195,-0.064727783203125,0.1815948486328125,0.034698486328125
196,-0.05474853515625,0.211761474609375,0.0327301025390625
197,-0.0399627685546875,0.2669219970703125,0.0318145751953125
198,-0.0279693603515625,0.3694610595703125,0.031173706054687503
199,-0.018951416015625,0.4777679443359375,0.0305328369140625
200,-0.0102081298828125,0.5237274169921875,0.0287933349609375
201,-0.00018310546875,0.4865570068359375,0.0267333984375
202,0.0092010498046875,0.4307098388671875,0.02508544921875
203,0.0179901123046875,0.3920745849609375,0.0230255126953125
204,0.02545166015625,0.3593902587890625,0.022247314453125
205,0.0314483642578125,0.3518829345703125,0.0212860107421875
206,0.035797119140625,0.3917083740234375,0.0190887451171875
207,0.0404205322265625,0.4819793701171875,0.0178070068359375
208,0.0429840087890625,0.5663909912109375,0.0186309814453125
209,0.045684814453125,0.6251678466796875,0.01922607421875
210,0.0498046875,0.6372528076171875,0.0189971923828125
211,0.0553436279296875,0.60919189453125,0.017669677734375
212,0.05401611328125,0.5656585693359375,0.0178070068359375
213,0.0538787841796875,0.5221710205078125,0.0178985595703125
214,0.0562591552734375,0.486785888671875,0.01739501953125
215,0.05914306640625,0.4587249755859375,0.0192718505859375
216,0.0607452392578125,0.4411468505859375,0.0203704833984375
217,0.0608367919921875,0.4137725830078125,0.0197296142578125
218,0.0614776611328125,0.3737640380859375,0.0187225341796875
219,0.0618896484375,0.3196563720703125,0.0180816650390625
220,0.0637664794921875,0.2560272216796875,0.0176239013671875
221,0.0673370361328125,0.18695068359375,0.0178070068359375
222,0.0699920654296875,0.1198883056640625,0.0197296142578125
223,0.0720062255859375,0.0644073486328125,0.0201873779296875
224,0.07379150390625,0.0161590576171875,0.0211029052734375
225,0.0705413818359375,-0.02288818359375,0.0211029052734375
226,0.0669708251953125,-0.0500335693359375,0.0217437744140625
227,0.0656890869140625,-0.068572998046875,0.0221099853515625
228,0.0684356689453125,-0.0850982666015625,0.0200958251953125
229,0.0732879638671875,-0.0999298095703125,0.0193634033203125
230,0.07745361328125,-0.1149444580078125,0.0203704833984375
231,0.07818603515625,-0.127349853515625,0.0217437744140625
232,0.0789642333984375,-0.1378326416015625,0.0237579345703125
233,0.07818603515625,-0.146026611328125,0.0251312255859375
234,0.0741119384765625,-0.1533966064453125,0.02508544921875
235,0.0706329345703125,-0.159576416015625,0.0271453857421875
236,0.0709991455078125,-0.1641082763671875,0.0274200439453125
237,0.0699920654296875,-0.1689605712890625,0.0274658203125
238,0.0706329345703125,-0.173126220703125,0.0287933349609375
239,0.0698089599609375,-0.1772918701171875,0.0274200439453125
240,0.0690765380859375,-0.1826934814453125,0.0252227783203125
241,0.0670623779296875,-0.1879119873046875,0.0250396728515625
242,0.06170654296874999,-0.191253662109375,0.0267791748046875
243,0.05804443359375,-0.1930389404296875,0.0281524658203125
244,0.05657958984375,-0.19537353515625,0.0276947021484375
245,0.0559844970703125,-0.198028564453125,0.0268707275390625
246,0.0566253662109375,-0.1971588134765625,0.0265960693359375
247,0.0553436279296875,-0.19500732421875,0.0277862548828125
248,0.0532379150390625,-0.19354248046875,0.0296630859375
249,0.05072021484375,-0.1912078857421875,0.030670166015624997
250,0.0482940673828125,-0.1915740966796875,0.031951904296875
251,0.0461883544921875,-0.19281005859375,0.0330963134765625
252,0.0465545654296875,-0.1918487548828125,0.0340118408203125
253,0.049530029296875,-0.192718505859375,0.0336456298828125
254,0.05291748046875,-0.1958770751953125,0.0332794189453125
255,0.0533294677734375,-0.1956939697265625,0.0339202880859375
256,0.0542449951171875,-0.1919403076171875,0.0336456298828125
257,0.0548858642578125,-0.1903839111328125,0.0348358154296875
258,0.0541534423828125,-0.1882781982421875,0.03643798828125
259,0.0485687255859375,-0.1861724853515625,0.0361175537109375
260,0.043670654296875,-0.1844329833984375,0.0353851318359375
261,0.03973388671875,-0.1831512451171875,0.0371246337890625
262,0.0363006591796875,-0.18218994140625,0.0380401611328125
263,0.0326385498046875,-0.18218994140625,0.0384063720703125
264,0.0282440185546875,-0.1816864013671875,0.0385894775390625
265,0.02838134765625,-0.1824188232421875,0.0387725830078125
266,0.02947998046875,-0.1830596923828125,0.03900146484375
267,0.02764892578125,-0.1815948486328125,0.0383148193359375
268,0.0215606689453125,-0.17852783203125,0.0384063720703125
269,0.0179901123046875,-0.175689697265625,0.0370330810546875
270,0.0196380615234375,-0.1774749755859375,0.0380401611328125
271,0.02325439453125,-0.1772003173828125,0.0390472412109375
272,0.0278778076171875,-0.1753692626953125,0.0400543212890625
273,0.0342864990234375,-0.17376708984375,0.03973388671875
274,0.0409698486328125,-0.1711578369140625,0.037994384765625
275,0.04449462890625,-0.1717071533203125,0.0368499755859375
276,0.0441741943359375,-0.171661376953125,0.0343780517578125
277,0.0460968017578125,-0.1688690185546875,0.0347442626953125
278,0.05291748046875,-0.1696929931640625,0.0373992919921875
279,0.0598297119140625,-0.1694183349609375,0.038543701171875
280,0.0628509521484375,-0.1695098876953125,0.0384063720703125
281,0.06134033203124999,-0.1695556640625,0.036529541015625
282,0.06161499023437501,-0.1696014404296875,0.0361175537109375
283,0.0597381591796875,-0.1682281494140625,0.0352935791015625
284,0.0544281005859375,-0.16552734375,0.0352020263671875
285,0.0435333251953125,-0.16790771484375,0.036529541015625
286,0.0347442626953125,-0.1684112548828125,0.0373077392578125
287,0.0291595458984375,-0.1662139892578125,0.03643798828125
288,0.02545166015625,-0.1639251708984375,0.0384979248046875
289,0.0267791748046875,-0.161773681640625,0.039825439453125
290,0.0303497314453125,-0.1605377197265625,0.0401458740234375
291,0.032867431640625,-0.158203125,0.04046630859375
292,0.0357513427734375,-0.1579742431640625,0.03936767578125
293,0.0373992919921875,-0.1582489013671875,0.0379486083984375
294,0.0381317138671875,-0.1572418212890625,0.0362091064453125
295,0.0371246337890625,-0.1576080322265625,0.0351104736328125
296,0.036895751953125,-0.1579742431640625,0.0343780517578125
297,0.038177490234375,-0.1566925048828125,0.0340118408203125
298,0.0352020263671875,-0.1566925048828125,0.03277587890625
299,0.0355682373046875,-0.15545654296875,0.0325469970703125
300,0.041107177734375,-0.15289306640625,0.0328216552734375
301,0.0460968017578125,-0.15216064453125,0.0328216552734375
302,0.0499420166015625,-0.1520233154296875,0.0328216552734375
303,0.0530548095703125,-0.1520233154296875,0.033050537109375
304,0.051727294921875,-0.1517486572265625,0.0327301025390625
305,0.04852294921875,-0.15179443359375,0.03240966796875
306,0.0479278564453125,-0.1534881591796875,0.032867431640625
307,0.051177978515625,-0.1552276611328125,0.0320892333984375
308,0.05584716796875,-0.1564178466796875,0.0310821533203125
309,0.0561676025390625,-0.1567840576171875,0.0319061279296875
310,0.053466796875,-0.1567840576171875,0.0330047607421875
311,0.0493011474609375,-0.1561431884765625,0.0337371826171875
312,0.0441741943359375,-0.1562347412109375,0.0337371826171875
313,0.0421600341796875,-0.1576080322265625,0.0344696044921875
314,0.04156494140625,-0.15875244140625,0.0355682373046875
315,0.0384063720703125,-0.1609039306640625,0.0364837646484375
316,0.0335540771484375,-0.1638336181640625,0.0359344482421875
317,0.0303497314453125,-0.1638336181640625,0.03607177734375
318,0.0331878662109375,-0.1646575927734375,0.036346435546875
319,0.0372161865234375,-0.1680450439453125,0.0343780517578125
320,0.042572021484375,-0.1696929931640625,0.03277587890625
321,0.05072021484375,-0.1696929931640625,0.0322723388671875
322,0.0551605224609375,-0.1715240478515625,0.0321807861328125
323,0.0604705810546875,-0.1711578369140625,0.0310821533203125
324,0.0669708251953125,-0.1687774658203125,0.0310821533203125
325,0.0712738037109375,-0.1688690185546875,0.031173706054687503
326,0.0689849853515625,-0.1692352294921875,0.030807495117187503
327,0.0601959228515625,-0.17120361328125,0.0298919677734375
328,0.048797607421875,-0.17266845703125,0.0288848876953125
329,0.03826904296875,-0.1744537353515625,0.0281524658203125
330,0.0284271240234375,-0.1811370849609375,0.0267791748046875
331,0.02362060546875,-0.1847076416015625,0.0263671875
332,0.0241241455078125,-0.1883697509765625,0.0276947021484375
333,0.02618408203125,-0.190155029296875,0.0266876220703125
334,0.0241241455078125,-0.1906585693359375,0.0252227783203125
335,0.01885986328125,-0.1930389404296875,0.0231170654296875
336,0.0176239013671875,-0.1947784423828125,0.0227508544921875
337,0.02142333984375,-0.1959686279296875,0.0248565673828125
338,0.0288848876953125,-0.1970672607421875,0.0247650146484375
339,0.0369415283203125,-0.1970672607421875,0.0223846435546875
340,0.0413360595703125,-0.1999969482421875,0.0210113525390625
341,0.0426177978515625,-0.2033843994140625,0.0222015380859375
342,0.0432586669921875,-0.2051239013671875,0.02398681640625
343,0.0449981689453125,-0.2061309814453125,0.0245819091796875
344,0.0500335693359375,-0.2081451416015625,0.0234832763671875
345,0.055572509765625,-0.2093353271484375,0.0221099853515625
346,0.0600128173828125,-0.2095184326171875,0.021514892578125
347,0.06280517578125,-0.2076873779296875,0.0209197998046875
348,0.0647735595703125,-0.2046661376953125,0.0211029052734375
349,0.0665130615234375,-0.2015533447265625,0.0215606689453125
350,0.0654144287109375,-0.1979827880859375,0.0228424072265625
351,0.0636749267578125,-0.19757080078125,0.02252197265625
352,0.0625762939453125,-0.1977081298828125,0.0199127197265625
353,0.06166076660156251,-0.1967010498046875,0.0188140869140625
354,0.06060791015625,-0.19610595703125,0.0185394287109375
355,0.0592803955078125,-0.1959686279296875,0.01702880859375
356,0.055572509765625,-0.1960601806640625,0.0147857666015625
357,0.0510406494140625,-0.1971588134765625,0.01373291015625
358,0.0480194091796875,-0.19464111328125,0.0124053955078125
359,0.04595947265625,-0.1923065185546875,0.0135040283203125
360,0.0454559326171875,-0.1904754638671875,0.0146942138671875
361,0.0438079833984375,-0.1883697509765625,0.015655517578125
362,0.0435333251953125,-0.1839752197265625,0.0161590576171875
363,0.0435333251953125,-0.17889404296875,0.0176239013671875
364,0.0427093505859375,-0.1746368408203125,0.0185394287109375
365,0.04156494140625,-0.1706085205078125,0.0193634033203125
366,0.0415191650390625,-0.1647491455078125,0.0187225341796875
367,0.04302978515625,-0.1557769775390625,0.017303466796875
368,0.0409698486328125,-0.1483612060546875,0.01629638671875
369,0.0387725830078125,-0.144195556640625,0.0157012939453125
370,0.0357513427734375,-0.13861083984375,0.0149688720703125
371,0.0322265625,-0.1315155029296875,0.0144195556640625
372,0.0292510986328125,-0.1251068115234375,0.0135498046875
373,0.0285186767578125,-0.1162261962890625,0.0123138427734375
374,0.0271453857421875,-0.1077117919921875,0.0115814208984375
375,0.02581787109375,-0.0978240966796875,0.0104827880859375
376,0.0231170654296875,-0.0884857177734375,0.0093841552734375
377,0.0204620361328125,-0.0794219970703125,0.0102081298828125
378,0.0212860107421875,-0.0714569091796875,0.011444091796875
379,0.0252227783203125,-0.0637664794921875,0.01153564453125
380,0.0296173095703125,-0.0555267333984375,0.0099334716796875
381,0.029296875,-0.0497589111328125,0.0083770751953125
382,0.0254058837890625,-0.04412841796875,0.0077362060546875
383,0.0222015380859375,-0.0372161865234375,0.0080108642578125
384,0.0204620361328125,-0.0288848876953125,0.0086517333984375
385,0.015518188476562498,-0.0205535888671875,0.0088348388671875
386,0.003021240234375,-0.01007080078125,0.00860595703125
387,-0.0113067626953125,-0.0006866455078125,0.0096588134765625
388,-0.023529052734375,0.00750732421875,0.01007080078125
389,-0.0266876220703125,0.015335083007812498,0.0081024169921875
390,-0.0213775634765625,0.01922607421875,0.007965087890625
391,-0.00897216796875,0.0232086181640625,0.0093841552734375
392,0.0009613037109375,0.029296875,0.0094757080078125
393,0.0131378173828125,0.0351104736328125,0.0102996826171875
394,0.0241241455078125,0.0417938232421875,0.0101165771484375
395,0.0347442626953125,0.0464630126953125,0.01043701171875
396,0.04193115234375,0.0514984130859375,0.0119476318359375
397,0.0450439453125,0.0556182861328125,0.01190185546875
398,0.04815673828125,0.058685302734375,0.0115814208984375
399,0.0499420166015625,0.0610198974609375,0.0101165771484375
400,0.0504913330078125,0.0636749267578125,0.008880615234375
401,0.0522308349609375,0.065277099609375,0.0077362060546875
402,0.0527801513671875,0.0673828125,0.0050811767578125
403,0.0534210205078125,0.0680694580078125,0.0035247802734375
404,0.0557098388671875,0.0697174072265625,0.00238037109375
405,0.0559844970703125,0.0697174072265625,0.00238037109375
406,0.0560760498046875,0.0677032470703125,0.0024261474609375
407,0.0562591552734375,0.0679779052734375,0.0038909912109375
408,0.0589141845703125,0.06829833984375,0.0052642822265625
409,0.0599212646484375,0.0677490234375,0.00640869140625
410,0.0590057373046875,0.067291259765625,0.0059051513671875
411,0.0597381591796875,0.0672454833984375,0.00347900390625
412,0.06202697753906251,0.0666046142578125,0.0022430419921875
413,0.0633087158203125,0.06500244140625,0.0029754638671875
414,0.06207275390624999,0.0654144287109375,0.003204345703125
415,0.0586395263671875,0.0662384033203125,0.0033416748046875
416,0.05584716796875,0.06683349609375,0.0051727294921875
417,0.056488037109375,0.0672454833984375,0.0058135986328125
418,0.0542449951171875,0.0690765380859375,0.0064544677734375
419,0.0451812744140625,0.0705413818359375,0.0061798095703125
420,0.036895751953125,0.0697174072265625,0.0060882568359375
421,0.032867431640625,0.0695343017578125,0.0054473876953125
422,0.0335540771484375,0.0705413818359375,0.00531005859375
423,0.0317230224609375,0.0703125,0.0053558349609375
424,0.0332794189453125,0.0727386474609375,0.0046234130859375
425,0.0360260009765625,0.071502685546875,0.0044403076171875
426,0.03387451171875,0.0684356689453125,0.0027008056640625
427,0.0302581787109375,0.0669708251953125,0.0027923583984375
428,0.0276947021484375,0.0666961669921875,0.00439453125
429,0.02581787109375,0.0680694580078125,0.0048065185546875
430,0.0244903564453125,0.06719970703125,0.0054473876953125
431,0.0277862548828125,0.0643157958984375,0.0046234130859375
432,0.0318145751953125,0.0626678466796875,0.003204345703125
433,0.031219482421874997,0.0601043701171875,0.00347900390625
434,0.0289764404296875,0.0591888427734375,0.0036163330078125
435,0.0282440185546875,0.053558349609375,0.004119873046875
436,0.0274200439453125,0.04888916015625,0.0038909912109375
437,0.0282440185546875,0.0468292236328125,0.0027923583984375
438,0.0215606689453125,0.0471038818359375,0.0014190673828125
439,0.0112152099609375,0.0471038818359375,-0.001739501953125
440,0.0028839111328125,0.04742431640625,-0.0029754638671875
441,-0.0037078857421875,0.04742431640625,-0.0030670166015625
442,-0.0014190673828125,0.04742431640625,-0.00457763671875
443,0.0046234130859375,0.047332763671875,-0.00384521484375
444,0.0146026611328125,0.0469207763671875,-0.00274658203125
445,0.0274200439453125,0.0468292236328125,-0.00238037109375
446,0.037445068359375,0.0453643798828125,-0.0016021728515625
447,0.0475616455078125,0.0452728271484375,0.00018310546875
448,0.052642822265625,0.0461883544921875,0.001373291015625
449,0.0552520751953125,0.0463714599609375,0.0021514892578125
450,0.0542449951171875,0.0419769287109375,0.0019683837890625
451,0.051727294921875,0.0394134521484375,0.0004119873046875
452,0.0509033203125,0.03717041015625,-0.0025177001953125
453,0.052276611328125,0.0365753173828125,-0.0037994384765625
454,0.049072265625,0.0381317138671875,-0.0036163330078125
455,0.0384979248046875,0.0377655029296875,-0.0013275146484375
456,0.0295257568359375,0.0352935791015625,-0.00128173828125
457,0.0271453857421875,0.03387451171875,-0.0011444091796875
458,0.0310821533203125,0.0328216552734375,-0.0016021728515625
459,0.0365753173828125,0.0319061279296875,-0.002471923828125
460,0.0390472412109375,0.031768798828125,-0.00311279296875
461,0.0382232666015625,0.0305328369140625,-0.0018310546875
462,0.0419769287109375,0.0284271240234375,-0.00128173828125
463,0.0487518310546875,0.028472900390625,-0.00347900390625
464,0.0582733154296875,0.029296875,-0.0046234130859375
465,0.0582733154296875,0.0314483642578125,-0.0059967041015625
466,0.053741455078125,0.0319976806640625,-0.0056304931640625
467,0.0491180419921875,0.0318145751953125,-0.0053558349609375
468,0.0463714599609375,0.03131103515625,-0.0070037841796875
469,0.0454559326171875,0.0318145751953125,-0.0048065185546875
470,0.0479736328125,0.0335540771484375,-0.004669189453125
471,0.0509033203125,0.0355682373046875,-0.0053558349609375
472,0.0545196533203125,0.0373992919921875,-0.005126953125
473,0.0563507080078125,0.0374908447265625,-0.0038909912109375
474,0.0578155517578125,0.0363922119140625,-0.0058135986328125
475,0.0576324462890625,0.0346527099609375,-0.0078277587890625
476,0.0562591552734375,0.0323638916015625,-0.0092926025390625
477,0.0552520751953125,0.0317230224609375,-0.0100250244140625
478,0.05419921875,0.0314483642578125,-0.01263427734375
479,0.0528717041015625,0.031173706054687503,-0.0158843994140625
480,0.0524139404296875,0.0295257568359375,-0.0185394287109375
481,0.0524139404296875,0.029388427734375,-0.0199127197265625
482,0.050262451171875,0.0296173095703125,-0.0198211669921875
483,0.0452728271484375,0.0288848876953125,-0.0183563232421875
484,0.0383148193359375,0.029022216796875,-0.0140533447265625
485,0.0321807861328125,0.0295257568359375,-0.0095672607421875
486,0.0281524658203125,0.0300750732421875,-0.00604248046875
487,0.0216064453125,0.0313568115234375,-0.0044403076171875
488,0.01629638671875,0.0322723388671875,-0.0052642822265625
489,0.0132293701171875,0.0336456298828125,-0.0054931640625
490,0.00933837890625,0.0352020263671875,-0.0048065185546875
491,0.0092926025390625,0.038177490234375,-0.001922607421875
492,0.011444091796875,0.0402374267578125,0.0034332275390625
493,0.0123138427734375,0.0431671142578125,0.00860595703125
494,0.0135040283203125,0.0451812744140625,0.0138702392578125
495,0.014739990234375,0.04632568359375,0.0220184326171875
496,0.0130462646484375,0.0471954345703125,0.0248565673828125
497,0.009979248046875,0.0493927001953125,0.0193634033203125
498,0.0079193115234375,0.051361083984375,0.0111236572265625
499,0.006683349609375,0.050628662109375,0.0027008056640625
500,0.00457763671875,0.04852294921875,-0.0021514892578125
501,0.0050811767578125,0.0475616455078125,-0.0017852783203125
502,0.00677490234375,0.0464630126953125,0.0016937255859375
503,0.0075531005859375,0.0466461181640625,0.006866455078125
504,0.00933837890625,0.0459136962890625,0.01336669921875
505,0.0133209228515625,0.0424346923828125,0.0185394287109375
506,0.0160675048828125,0.0399627685546875,0.0278778076171875
507,0.0184478759765625,0.0401458740234375,0.0396881103515625
508,0.01885986328125,0.0423431396484375,0.0445404052734375
509,0.022796630859375,0.0435333251953125,0.04522705078125
510,0.026641845703125,0.0443572998046875,0.0483856201171875
511,0.025726318359375,0.0424346923828125,0.0521392822265625
512,0.0236663818359375,0.041290283203125,0.05364990234375
513,0.0237579345703125,0.0412445068359375,0.0536041259765625
514,0.0243988037109375,0.0424346923828125,0.0479278564453125
515,0.023895263671875,0.0438995361328125,0.04046630859375
516,0.0222930908203125,0.0458221435546875,0.0365753173828125
517,0.0210113525390625,0.0485687255859375,0.0351104736328125
518,0.02288818359375,0.0502166748046875,0.0323638916015625
519,0.027374267578125,0.0504913330078125,0.0270538330078125
520,0.0321807861328125,0.0529632568359375,0.0201873779296875
521,0.03753662109375,0.05364990234375,0.01263427734375
522,0.044403076171875,0.0512237548828125,0.002197265625
523,0.0475616455078125,0.0493927001953125,-0.0100250244140625
524,0.0493011474609375,0.0474700927734375,-0.0168914794921875
525,0.0469207763671875,0.0464630126953125,-0.0227508544921875
526,0.0395050048828125,0.046875,-0.0259552001953125
527,0.0357513427734375,0.0461883544921875,-0.0234832763671875
528,0.03570556640625,0.0431671142578125,-0.018218994140625
529,0.0336456298828125,0.0417938232421875,-0.015426635742187498
530,0.0361175537109375,0.04046630859375,-0.01336669921875
531,0.0422515869140625,0.03900146484375,-0.0109405517578125
532,0.04852294921875,0.03863525390625,-0.01007080078125
533,0.0501251220703125,0.0386810302734375,-0.0083770751953125
534,0.04888916015625,0.0390472412109375,-0.0101165771484375
535,0.0446319580078125,0.0395965576171875,-0.0124969482421875
536,0.04449462890625,0.0419769287109375,-0.0141448974609375
537,0.0558013916015625,0.04449462890625,-0.0201873779296875
538,0.0695343017578125,0.0453643798828125,-0.0264129638671875
539,0.079376220703125,0.04522705078125,-0.0302581787109375
540,0.08843994140625,0.04669189453125,-0.0320892333984375
541,0.0959014892578125,0.0463714599609375,-0.0345611572265625
542,0.102813720703125,0.0438079833984375,-0.0369415283203125
543,0.1100006103515625,0.04266357421875,-0.03753662109375
544,0.1149444580078125,0.0442657470703125,-0.0403289794921875
545,0.11846923828125,0.0468292236328125,-0.0457305908203125
546,0.12176513671875,0.0479278564453125,-0.0524139404296875
547,0.1273956298828125,0.049530029296875,-0.0563507080078125
548,0.133392333984375,0.0491180419921875,-0.0582733154296875
549,0.1328887939453125,0.0486602783203125,-0.0585479736328125
550,0.12409973144531249,0.04852294921875,-0.0585479736328125
551,0.113433837890625,0.04779052734375,-0.055023193359375
552,0.10546875,0.04742431640625,-0.0517730712890625
553,0.10125732421875,0.0479278564453125,-0.0492095947265625
554,0.0999298095703125,0.0472869873046875,-0.0510406494140625
555,0.1005706787109375,0.0483856201171875,-0.0527801513671875
556,0.097869873046875,0.0510406494140625,-0.052276611328125
557,0.0944366455078125,0.0506744384765625,-0.0502166748046875
558,0.08990478515625,0.0499420166015625,-0.0498504638671875
559,0.08660888671875,0.04925537109375,-0.0509033203125
560,0.0866546630859375,0.0487518310546875,-0.0501251220703125
561,0.08697509765625,0.0472412109375,-0.04852294921875
562,0.0844573974609375,0.04559326171875,-0.0501251220703125
563,0.0804290771484375,0.04486083984375,-0.05328369140625
564,0.0736541748046875,0.0431671142578125,-0.05767822265625
565,0.0636749267578125,0.0432586669921875,-0.06202697753906251
566,0.0501251220703125,0.0435333251953125,-0.06207275390624999
567,0.0394134521484375,0.0449981689453125,-0.0586395263671875
568,0.0299835205078125,0.0473785400390625,-0.04925537109375
569,0.0212860107421875,0.0465545654296875,-0.0390472412109375
570,0.012451171875,0.0453643798828125,-0.0333709716796875
571,0.0054473876953125,0.0449066162109375,-0.0276947021484375
572,0.00238037109375,0.0472869873046875,-0.0100250244140625
573,-0.00018310546875,0.0493011474609375,0.0216064453125
574,-0.0083770751953125,0.0493927001953125,0.0618438720703125
575,-0.0170745849609375,0.0505828857421875,0.095123291015625
576,-0.0189056396484375,0.0504913330078125,0.1183319091796875
577,-0.0190887451171875,0.0499420166015625,0.1437835693359375
578,-0.0189971923828125,0.0493011474609375,0.164703369140625
579,-0.01629638671875,0.0474700927734375,0.1666717529296875
580,-0.0164337158203125,0.0471038818359375,0.14190673828125
581,-0.01922607421875,0.0475616455078125,0.1070709228515625
582,-0.0231170654296875,0.04669189453125,0.092010498046875
583,-0.0305328369140625,0.0457305908203125,0.096954345703125
584,-0.0387725830078125,0.0430755615234375,0.107940673828125
585,-0.04376220703125,0.0413360595703125,0.1210784912109375
586,-0.0448150634765625,0.04083251953125,0.13348388671875
587,-0.04669189453125,0.0391387939453125,0.1569671630859375
588,-0.0479278564453125,0.0397796630859375,0.21112060546875
589,-0.0453643798828125,0.0386810302734375,0.3001556396484375
590,-0.0449066162109375,0.0399627685546875,0.423797607421875
591,-0.0479278564453125,0.04119873046875,0.5561370849609375
592,-0.046875,0.04046630859375,0.6143646240234375
593,-0.0442657470703125,0.0388641357421875,0.5947723388671875
594,-0.0459136962890625,0.0381317138671875,0.5587921142578125
595,-0.0452728271484375,0.0380401611328125,0.5202484130859375
596,-0.0403289794921875,0.038177490234375,0.49346923828125006
597,-0.0364837646484375,0.0373077392578125,0.4925994873046875
598,-0.0345611572265625,0.0372161865234375,0.5423126220703125
599,-0.0370330810546875,0.0399627685546875,0.6156463623046875
600,-0.039642333984375,0.041107177734375,0.6697540283203125
601,-0.0411529541015625,0.04302978515625,0.6932830810546875
602,-0.0448150634765625,0.0445404052734375,0.6740570068359375
603,-0.0491180419921875,0.0442657470703125,0.6215057373046875
604,-0.0551605224609375,0.0442657470703125,0.5594329833984375
605,-0.060699462890625,0.04449462890625,0.49946594238281244
606,-0.0664215087890625,0.0452728271484375,0.4495697021484375
607,-0.06939697265625,0.0457305908203125,0.4093780517578125
608,-0.0658721923828125,0.047332763671875,0.3751373291015625
609,-0.0563507080078125,0.0471038818359375,0.3371429443359375
610,-0.0493927001953125,0.04815673828125,0.2901763916015625
611,-0.043853759765625,0.04962158203125,0.2287445068359375
612,-0.02874755859375,0.0485687255859375,0.16204833984375
613,0.000640869140625,0.0478363037109375,0.0981903076171875
614,0.0401458740234375,0.0476531982421875,0.0435791015625
615,0.0838165283203125,0.0481109619140625,-0.0059051513671875
616,0.1251983642578125,0.0475616455078125,-0.0502166748046875
617,0.1629180908203125,0.0465545654296875,-0.0872955322265625
618,0.2047576904296875,0.0458221435546875,-0.11773681640625
619,0.24522399902343753,0.0479278564453125,-0.1394805908203125
620,0.2660980224609375,0.04925537109375,-0.1578826904296875
621,0.25762939453125,0.0485687255859375,-0.173492431640625
622,0.2490692138671875,0.0480194091796875,-0.1869049072265625
623,0.26239013671875,0.0476531982421875,-0.1999969482421875
624,0.2827606201171875,0.0472869873046875,-0.20928955078125
625,0.3090362548828125,0.0471954345703125,-0.21734619140625
626,0.3316497802734375,0.0471954345703125,-0.2216949462890625
627,0.3581085205078125,0.0468292236328125,-0.2259063720703125
628,0.4001312255859375,0.0447235107421875,-0.228607177734375
629,0.4731903076171875,0.0424346923828125,-0.22869873046875
630,0.574859619140625,0.0416107177734375,-0.2289276123046875
631,0.696075439453125,0.0409698486328125,-0.2321319580078125
632,0.7671661376953125,0.04010009765625,-0.23529052734375
633,0.7134246826171875,0.0395050048828125,-0.2373046875
634,0.6108856201171875,0.0383148193359375,-0.2410125732421875
635,0.5062408447265625,0.0381317138671875,-0.2424774169921875
636,0.41326904296875,0.0385894775390625,-0.24407958984375
637,0.348358154296875,0.0398712158203125,-0.24554443359374997
638,0.3456573486328125,0.0397796630859375,-0.24815368652343753
639,0.3871307373046875,0.039093017578125,-0.24980163574218747
640,0.430755615234375,0.038543701171875,-0.2501678466796875
641,0.4408721923828125,0.04119873046875,-0.24993896484374997
642,0.4174346923828125,0.0434417724609375,-0.2492523193359375
643,0.3693695068359375,0.0449981689453125,-0.24838256835937497
644,0.3123321533203125,0.04559326171875,-0.24833679199218747
645,0.2554779052734375,0.044769287109375,-0.24943542480468753
646,0.2097015380859375,0.0437164306640625,-0.2491607666015625
647,0.1800384521484375,0.0420684814453125,-0.25140380859375
648,0.1690521240234375,0.041656494140625,-0.2546539306640625
649,0.1629180908203125,0.0427093505859375,-0.2564849853515625
650,0.14227294921875,0.0430755615234375,-0.2584991455078125
651,0.1064300537109375,0.0419769287109375,-0.25799560546875
652,0.05767822265625,0.0419769287109375,-0.2552032470703125
653,0.0104827880859375,0.0413360595703125,-0.253326416015625
654,-0.0273284912109375,0.0417022705078125,-0.2513580322265625
655,-0.0526885986328125,0.0431671142578125,-0.2487030029296875
656,-0.0714569091796875,0.0442657470703125,-0.24650573730468753
657,-0.0819854736328125,0.0450897216796875,-0.2439422607421875
658,-0.0995635986328125,0.0457305908203125,-0.2420654296875
659,-0.1190643310546875,0.0452728271484375,-0.24078369140625
660,-0.1361846923828125,0.04486083984375,-0.2407379150390625
661,-0.1437835693359375,0.0444488525390625,-0.2416534423828125
662,-0.150421142578125,0.044036865234375,-0.24421691894531247
663,-0.1584320068359375,0.0436248779296875,-0.24531555175781253
664,-0.1652984619140625,0.04376220703125,-0.24563598632812497
665,-0.170196533203125,0.0442657470703125,-0.2461395263671875
666,-0.1721649169921875,0.04559326171875,-0.2472381591796875
667,-0.1776580810546875,0.0449981689453125,-0.24842834472656247
668,-0.185211181640625,0.0433502197265625,-0.24810791015625003
669,-0.1916656494140625,0.0426177978515625,-0.24513244628906253
670,-0.1926727294921875,0.0425262451171875,-0.24114990234375
671,-0.1914825439453125,0.0413360595703125,-0.2405548095703125
672,-0.1937713623046875,0.0405120849609375,-0.2393646240234375
673,-0.1975250244140625,0.0391387939453125,-0.23675537109375
674,-0.1963348388671875,0.0385894775390625,-0.2347412109375
675,-0.1911163330078125,0.0388641357421875,-0.23089599609375
676,-0.1884613037109375,0.0386810302734375,-0.2294769287109375
677,-0.1880035400390625,0.0381317138671875,-0.22686767578125
678,-0.18914794921875,0.0373992919921875,-0.2267303466796875
679,-0.1898345947265625,0.0364837646484375,-0.2268218994140625
680,-0.1897430419921875,0.0377197265625,-0.22540283203125
681,-0.1869049072265625,0.0409698486328125,-0.22503662109375
682,-0.1841583251953125,0.0445404052734375,-0.225311279296875
683,-0.179718017578125,0.0464630126953125,-0.2278289794921875
684,-0.1750030517578125,0.048431396484375,-0.2277374267578125
685,-0.1729888916015625,0.0474700927734375,-0.2283782958984375
686,-0.17266845703125,0.0474700927734375,-0.229248046875
687,-0.1739959716796875,0.0460968017578125,-0.2297515869140625
688,-0.1770172119140625,0.0438079833984375,-0.230255126953125
689,-0.1782989501953125,0.04339599609375,-0.2283782958984375
690,-0.1800384521484375,0.0439910888671875,-0.22869873046875
691,-0.1799468994140625,0.04559326171875,-0.2278289794921875
692,-0.1770172119140625,0.04962158203125,-0.2257232666015625
693,-0.173126220703125,0.0581817626953125,-0.2246246337890625
694,-0.1711578369140625,0.070037841796875,-0.22357177734375
695,-0.169647216796875,0.07342529296875,-0.2205047607421875
696,-0.1713409423828125,0.0701751708984375,-0.2167510986328125
697,-0.173309326171875,0.06463623046875,-0.2123565673828125
698,-0.1739959716796875,0.0597381591796875,-0.211578369140625
699,-0.17486572265625,0.06134033203124999,-0.2107086181640625
700,-0.1789398193359375,0.063629150390625,-0.2117156982421875
701,-0.1846160888671875,0.0666046142578125,-0.21478271484375
702,-0.1878204345703125,0.0728302001953125,-0.2169342041015625
703,-0.1865386962890625,0.07965087890625,-0.2186737060546875
704,-0.1823272705078125,0.08697509765625,-0.22393798828125
705,-0.1775665283203125,0.0967254638671875,-0.2262725830078125
706,-0.1709747314453125,0.10418701171875,-0.2287445068359375
707,-0.162689208984375,0.10784912109375,-0.2310333251953125
708,-0.1561431884765625,0.1100921630859375,-0.2331390380859375
709,-0.149688720703125,0.1148529052734375,-0.2366180419921875
710,-0.14593505859375,0.12066650390625,-0.2409210205078125
711,-0.1433258056640625,0.1199798583984375,-0.240875244140625
712,-0.1413116455078125,0.1137542724609375,-0.2410125732421875
713,-0.1352691650390625,0.1057891845703125,-0.2400054931640625
714,-0.1296844482421875,0.09906005859375,-0.2383575439453125
715,-0.1263885498046875,0.0948028564453125,-0.2378082275390625
716,-0.1255645751953125,0.0911407470703125,-0.2406005859375
717,-0.12799072265625,0.0867462158203125,-0.2435760498046875
718,-0.130462646484375,0.0818939208984375,-0.24700927734374997
719,-0.135406494140625,0.0771331787109375,-0.2472381591796875
720,-0.1423187255859375,0.0681610107421875,-0.24810791015625003
721,-0.1489105224609375,0.0567169189453125,-0.24948120117187503
722,-0.1569671630859375,0.04852294921875,-0.2524566650390625
723,-0.1634674072265625,0.044036865234375,-0.25360107421875
724,-0.16644287109375,0.0430755615234375,-0.2559356689453125
725,-0.16754150390625,0.0440826416015625,-0.25909423828125
726,-0.16754150390625,0.04595947265625,-0.25982666015625
727,-0.1668548583984375,0.047882080078125,-0.2597808837890625
728,-0.164154052734375,0.0482025146484375,-0.2647247314453125
729,-0.1607208251953125,0.04742431640625,-0.2694854736328125
730,-0.1576995849609375,0.04632568359375,-0.2722320556640625
731,-0.1526641845703125,0.0461883544921875,-0.2741546630859375
732,-0.14923095703125,0.0485687255859375,-0.2750701904296875
733,-0.1510162353515625,0.04632568359375,-0.275299072265625
734,-0.1587066650390625,0.0419769287109375,-0.2765350341796875
735,-0.1678619384765625,0.0373077392578125,-0.2776336669921875
736,-0.1737213134765625,0.0337371826171875,-0.2762603759765625
737,-0.1747283935546875,0.0296173095703125,-0.2736968994140625
738,-0.16845703125,0.0260467529296875,-0.2731475830078125
739,-0.1654815673828125,0.0235748291015625,-0.2694854736328125
740,-0.1644287109375,0.0215606689453125,-0.268157958984375
741,-0.1643829345703125,0.019775390625,-0.2685699462890625
742,-0.1631011962890625,0.016571044921875,-0.2682952880859375
743,-0.1571502685546875,0.0139617919921875,-0.2659149169921875
744,-0.1505584716796875,0.0104827880859375,-0.2641754150390625
745,-0.1497344970703125,0.006134033203125,-0.2617950439453125
746,-0.1451568603515625,0.0038909912109375,-0.2575836181640625
747,-0.1409454345703125,0.00384521484375,-0.2552947998046875
748,-0.13897705078125,0.005126953125,-0.2505340576171875
749,-0.1387481689453125,0.0075531005859375,-0.24847412109374997
750,-0.1395721435546875,0.0080108642578125,-0.2457733154296875
751,-0.139892578125,0.0096588134765625,-0.2417449951171875
752,-0.138336181640625,0.0101165771484375,-0.2411041259765625
753,-0.1391143798828125,0.00897216796875,-0.23895263671875
754,-0.1380157470703125,0.009246826171875,-0.23529052734375
755,-0.1360015869140625,0.0093841552734375,-0.23199462890625
756,-0.133575439453125,0.0092010498046875,-0.2300262451171875
757,-0.133209228515625,0.010162353515625,-0.22540283203125
758,-0.137603759765625,0.0115814208984375,-0.2208709716796875
759,-0.1439666748046875,0.0138702392578125,-0.2138214111328125
760,-0.1506500244140625,0.01373291015625,-0.2069549560546875
761,-0.1548614501953125,0.0093841552734375,-0.200042724609375
762,-0.159210205078125,0.0040740966796875,-0.192901611328125
763,-0.1667633056640625,0.0005950927734375,-0.18438720703125
764,-0.1780242919921875,-0.0037078857421875,-0.1793060302734375
765,-0.18768310546875,-0.0042572021484375,-0.1755523681640625
766,-0.1943206787109375,0.001739501953125,-0.1709747314453125
767,-0.1959686279296875,0.009429931640625,-0.16204833984375
768,-0.1969757080078125,0.01190185546875,-0.15380859375
769,-0.1977996826171875,0.01409912109375,-0.14483642578125
770,-0.1962432861328125,0.0263214111328125,-0.1338043212890625
771,-0.1953277587890625,0.0516815185546875,-0.1238250732421875
772,-0.1941375732421875,0.0841827392578125,-0.1148529052734375
773,-0.1920318603515625,0.1175079345703125,-0.1058807373046875
774,-0.1873626708984375,0.1452484130859375,-0.0945281982421875
775,-0.183837890625,0.1764678955078125,-0.08660888671875
776,-0.1831512451171875,0.2059478759765625,-0.0772247314453125
777,-0.1838836669921875,0.22210693359375,-0.0696258544921875
778,-0.1814117431640625,0.2160186767578125,-0.06060791015625
779,-0.1772003173828125,0.1945953369140625,-0.0482940673828125
780,-0.1736297607421875,0.1765594482421875,-0.0366668701171875
781,-0.1724395751953125,0.1720733642578125,-0.03057861328125
782,-0.1691436767578125,0.1769256591796875,-0.0221099853515625
783,-0.1632843017578125,0.187225341796875,-0.0151519775390625
784,-0.1612701416015625,0.2098388671875,-0.0063629150390625
785,-0.15911865234375,0.2400970458984375,-0.0007781982421875
786,-0.1596221923828125,0.2754364013671875,0.0038909912109375
787,-0.15985107421875,0.3344879150390625,0.0101165771484375
788,-0.1563262939453125,0.4345550537109375,0.0124053955078125
789,-0.14996337890625,0.5422210693359375,0.0113983154296875
790,-0.1427764892578125,0.5927581787109375,0.0120849609375
791,-0.140899658203125,0.5579681396484375,0.0129547119140625
792,-0.140533447265625,0.5006561279296875,0.017303466796875
793,-0.1362762451171875,0.4607391357421875,0.0226593017578125
794,-0.1301422119140625,0.4234771728515625,0.029571533203125
795,-0.1288604736328125,0.4091033935546875,0.0329132080078125
796,-0.1300506591796875,0.4415130615234375,0.03350830078125
797,-0.1322479248046875,0.5259246826171875,0.0395050048828125
798,-0.13568115234375,0.6063079833984375,0.0452728271484375
799,-0.1307830810546875,0.6584014892578125,0.0500335693359375
800,-0.12327575683593751,0.6620635986328125,0.0494842529296875
801,-0.1205291748046875,0.6280059814453125,0.0485687255859375
802,-0.1213531494140625,0.5749053955078125,0.05035400390625
803,-0.1170501708984375,0.5228118896484375,0.0509490966796875
804,-0.113067626953125,0.483489990234375,0.0498504638671875
805,-0.106842041015625,0.45428466796875,0.049713134765625
806,-0.0978240966796875,0.4378509521484375,0.0488433837890625
807,-0.088714599609375,0.4162445068359375,0.0503997802734375
808,-0.08221435546875,0.378753662109375,0.0500335693359375
809,-0.0789642333984375,0.3290863037109375,0.04962158203125
810,-0.07379150390625,0.2658233642578125,0.0503082275390625
811,-0.0629425048828125,0.1981658935546875,0.0493927001953125
812,-0.0524139404296875,0.1360931396484375,0.04962158203125
813,-0.0406036376953125,0.0860137939453125,0.0514068603515625
814,-0.0297088623046875,0.0413360595703125,0.05145263671875
815,-0.0174407958984375,0.003570556640625,0.04779052734375
816,-0.0045318603515625,-0.0251312255859375,0.0435333251953125
817,0.0069122314453125,-0.0467376708984375,0.04266357421875
818,0.013458251953125,-0.0655975341796875,0.0398712158203125
819,0.01849365234375,-0.0806121826171875,0.0355224609375
820,0.0247650146484375,-0.09356689453125,0.0346527099609375
821,0.0308990478515625,-0.10601806640625,0.03387451171875
822,0.0361175537109375,-0.1180572509765625,0.0333709716796875
823,0.0376739501953125,-0.1273040771484375,0.0324554443359375
824,0.0393218994140625,-0.1329803466796875,0.0298919677734375
825,0.04229736328125,-0.13751220703125,0.0304412841796875
826,0.04705810546875,-0.1435089111328125,0.0295257568359375
827,0.054473876953125,-0.1478118896484375,0.0289764404296875
828,0.0566253662109375,-0.1511077880859375,0.02984619140625
829,0.0559844970703125,-0.1542205810546875,0.0316314697265625
830,0.0520477294921875,-0.1578826904296875,0.0321807861328125
831,0.0471954345703125,-0.1592559814453125,0.0319976806640625
832,0.0456390380859375,-0.1598968505859375,0.0319061279296875
833,0.0478363037109375,-0.1619110107421875,0.0303497314453125
834,0.0490264892578125,-0.1645660400390625,0.02728271484375
835,0.0504913330078125,-0.1670379638671875,0.0255889892578125
836,0.0552520751953125,-0.1666717529296875,0.02545166015625
837,0.0646820068359375,-0.1681365966796875,0.0251312255859375
838,0.0780487060546875,-0.16973876953125,0.0266876220703125
839,0.085052490234375,-0.1680908203125,0.02874755859375
840,0.0851898193359375,-0.1693267822265625,0.02911376953125
841,0.0849151611328125,-0.1691436767578125,0.0276947021484375
842,0.0831756591796875,-0.1665802001953125,0.0277862548828125
843,0.0860137939453125,-0.1666717529296875,0.025177001953125
844,0.0879364013671875,-0.1689605712890625,0.0209197998046875
845,0.0823516845703125,-0.1685028076171875,0.0159759521484375
846,0.0770416259765625,-0.1688690185546875,0.0118560791015625
847,0.0739288330078125,-0.1681365966796875,0.007781982421875
848,0.069305419921875,-0.16680908203125,0.0080108642578125
849,0.061798095703125,-0.1636962890625,0.0086517333984375
850,0.0527801513671875,-0.1613616943359375,0.00531005859375
851,0.0435333251953125,-0.1616363525390625,0.0035247802734375
852,0.0353851318359375,-0.1621856689453125,0.0058135986328125
853,0.0283355712890625,-0.1615447998046875,0.0101165771484375
854,0.0223846435546875,-0.1609039306640625,0.01043701171875
855,0.0238037109375,-0.1597137451171875,0.0128173828125
856,0.02947998046875,-0.1609039306640625,0.0146026611328125
857,0.0340118408203125,-0.1631011962890625,0.0167999267578125
858,0.0368499755859375,-0.162689208984375,0.0152435302734375
859,0.03717041015625,-0.1620025634765625,0.0117645263671875
860,0.0358428955078125,-0.1612701416015625,0.010162353515625
861,0.0344696044921875,-0.160675048828125,0.0091094970703125
862,0.0325469970703125,-0.1588897705078125,0.0068206787109375
863,0.02911376953125,-0.1545867919921875,0.00457763671875
864,0.024078369140625,-0.1527557373046875,0.003387451171875
865,0.020965576171875,-0.1527557373046875,0.00457763671875
866,0.0202789306640625,-0.1519317626953125,0.0050811767578125
867,0.021881103515625,-0.1510162353515625,0.0071868896484375
868,0.0211029052734375,-0.15087890625,0.00823974609375
869,0.02325439453125,-0.1521148681640625,0.0124053955078125
870,0.0215606689453125,-0.1531219482421875,0.0161590576171875
871,0.0195465087890625,-0.1531219482421875,0.0173492431640625
872,0.0168914794921875,-0.15142822265625,0.0181732177734375
873,0.0134124755859375,-0.1477203369140625,0.0190887451171875
874,0.01336669921875,-0.14556884765625,0.0187225341796875
875,0.0180816650390625,-0.1443328857421875,0.0194091796875
876,0.0241241455078125,-0.1440582275390625,0.018218994140625
877,0.0255889892578125,-0.142822265625,0.01629638671875
878,0.0237579345703125,-0.1400299072265625,0.015106201171875
879,0.0222015380859375,-0.13677978515625,0.01556396484375
880,0.0254974365234375,-0.1347198486328125,0.0160675048828125
881,0.031585693359375,-0.1332550048828125,0.016754150390625
882,0.0368499755859375,-0.13275146484375,0.0194549560546875
883,0.0417022705078125,-0.13311767578125,0.019134521484375
884,0.0443572998046875,-0.13311767578125,0.019500732421875
885,0.0402374267578125,-0.1343536376953125,0.02105712890625
886,0.0318145751953125,-0.1353607177734375,0.0233001708984375
887,0.0229339599609375,-0.1360015869140625,0.0267791748046875
888,0.0145111083984375,-0.1343536376953125,0.030487060546875
889,0.0092010498046875,-0.1327056884765625,0.0312652587890625
890,0.0016937255859375,-0.1314239501953125,0.0320892333984375
891,-0.002471923828125,-0.1326141357421875,0.0326385498046875
892,-0.0067291259765625,-0.1344451904296875,0.0368499755859375
893,-0.0113983154296875,-0.1357269287109375,0.0391387939453125
894,-0.0084686279296875,-0.1355438232421875,0.0370330810546875
895,-0.0016021728515625,-0.1348114013671875,0.034881591796875
896,0.0094757080078125,-0.13494873046875,0.0358428955078125
897,0.01519775390625,-0.1362762451171875,0.0368499755859375
898,0.0130462646484375,-0.137420654296875,0.0386810302734375
899,0.0111236572265625,-0.1380157470703125,0.0386810302734375
900,0.0122222900390625,-0.138885498046875,0.0366668701171875
901,0.0104827880859375,-0.1393890380859375,0.03497314453125
902,0.002655029296875,-0.1392059326171875,0.0343780517578125
903,-0.0043487548828125,-0.1398468017578125,0.0318145751953125
904,-0.0051727294921875,-0.142822265625,0.030624389648437503
905,0.00201416015625,-0.1457061767578125,0.03314208984375
906,0.0097503662109375,-0.1472625732421875,0.0354766845703125
907,0.02069091796875,-0.1488189697265625,0.036346435546875
908,0.0347442626953125,-0.1501007080078125,0.03826904296875
909,0.04888916015625,-0.1511993408203125,0.039093017578125
910,0.056396484375,-0.1518402099609375,0.0402374267578125
911,0.0666046142578125,-0.1533966064453125,0.0412445068359375
912,0.07196044921875,-0.1541290283203125,0.037628173828125
913,0.0735626220703125,-0.153533935546875,0.0346527099609375
914,0.07379150390625,-0.1548614501953125,0.0352020263671875
915,0.073974609375,-0.155914306640625,0.0344696044921875
916,0.0724639892578125,-0.1561431884765625,0.03387451171875
917,0.0718231201171875,-0.1560516357421875,0.0341033935546875
918,0.0704498291015625,-0.1599884033203125,0.0331878662109375
919,0.0636749267578125,-0.164520263671875,0.031585693359375
920,0.04998779296875,-0.1668548583984375,0.0335540771484375
921,0.0358428955078125,-0.1695556640625,0.034881591796875
922,0.0247650146484375,-0.1726226806640625,0.0363006591796875
923,0.0200958251953125,-0.1744537353515625,0.03607177734375
924,0.0171661376953125,-0.1772918701171875,0.0355224609375
925,0.0125885009765625,-0.1802215576171875,0.0346527099609375
926,0.013641357421875,-0.1825103759765625,0.033966064453125
927,0.0183563232421875,-0.1858978271484375,0.030807495117187503
928,0.02178955078125,-0.1882781982421875,0.0293426513671875
929,0.0248565673828125,-0.1887359619140625,0.0268707275390625
930,0.0289764404296875,-0.18988037109375,0.0274658203125
931,0.03350830078125,-0.1933135986328125,0.0289764404296875
932,0.0369415283203125,-0.1956939697265625,0.0287933349609375
933,0.0405120849609375,-0.1966094970703125,0.0290679931640625
934,0.0423431396484375,-0.1986236572265625,0.0287933349609375
935,0.0417022705078125,-0.200775146484375,0.0263214111328125
936,0.0443115234375,-0.2008209228515625,0.027099609375
937,0.0480194091796875,-0.199310302734375,0.0278778076171875
938,0.048614501953125,-0.19976806640625,0.0296173095703125
939,0.04669189453125,-0.2010955810546875,0.02838134765625
940,0.0456390380859375,-0.201873779296875,0.0298004150390625
941,0.04852294921875,-0.2006378173828125,0.0329132080078125
942,0.050994873046875,-0.20013427734375,0.0347442626953125
943,0.0542449951171875,-0.1999969482421875,0.0351104736328125
944,0.0567626953125,-0.19866943359375,0.0377655029296875
945,0.0570831298828125,-0.1975250244140625,0.0381317138671875
946,0.0560760498046875,-0.1957855224609375,0.0373077392578125
947,0.0569000244140625,-0.19427490234375,0.0359344482421875
948,0.0580902099609375,-0.1925811767578125,0.0372161865234375
949,0.0579071044921875,-0.1917572021484375,0.0364837646484375
950,0.0573577880859375,-0.1912078857421875,0.0371246337890625
951,0.0563507080078125,-0.1896514892578125,0.0368499755859375
952,0.0510406494140625,-0.1866302490234375,0.03936767578125
953,0.0471038818359375,-0.1821441650390625,0.0395965576171875
954,0.0451812744140625,-0.1755523681640625,0.0373992919921875
955,0.0436248779296875,-0.16827392578125,0.0381317138671875
956,0.0419769287109375,-0.1639251708984375,0.0381317138671875
957,0.03900146484375,-0.1593475341796875,0.03570556640625
958,0.038909912109375,-0.15435791015625,0.0347442626953125
959,0.0431671142578125,-0.1465301513671875,0.0361175537109375
960,0.0478363037109375,-0.1376495361328125,0.0377197265625
961,0.0492095947265625,-0.1312408447265625,0.0381317138671875
962,0.0476531982421875,-0.12409973144531249,0.0373077392578125
963,0.0458221435546875,-0.1162261962890625,0.0382232666015625
964,0.0465545654296875,-0.1081695556640625,0.0406036376953125
965,0.04998779296875,-0.0986480712890625,0.0395965576171875
966,0.0552520751953125,-0.0900421142578125,0.0383148193359375
967,0.059326171875,-0.07965087890625,0.0369415283203125
968,0.06166076660156251,-0.06976318359375,0.03790283203125
969,0.0599212646484375,-0.0612030029296875,0.0394134521484375
970,0.0520477294921875,-0.0523681640625,0.03826904296875
971,0.0401458740234375,-0.0437164306640625,0.0384063720703125
972,0.02508544921875,-0.0353851318359375,0.0397796630859375
973,0.0178070068359375,-0.0271453857421875,0.0404205322265625
974,0.0150604248046875,-0.0183563232421875,0.0375823974609375
975,0.0146484375,-0.0105743408203125,0.0351104736328125
976,0.0145111083984375,-0.0037994384765625,0.03460693359375
977,0.0237579345703125,0.0040740966796875,0.0341949462890625
978,0.0346527099609375,0.0131378173828125,0.0331878662109375
979,0.040008544921875,0.0202789306640625,0.03204345703125
980,0.0431671142578125,0.0278778076171875,0.0291595458984375
981,0.04705810546875,0.0356597900390625,0.0284271240234375
982,0.0482025146484375,0.041015625,0.0277862548828125
983,0.0463714599609375,0.0460968017578125,0.028564453125
984,0.0443572998046875,0.0508575439453125,0.0307159423828125
985,0.04119873046875,0.054107666015625,0.0335540771484375
986,0.03607177734375,0.057952880859375,0.03607177734375
987,0.030624389648437503,0.0633087158203125,0.0406951904296875
988,0.025360107421875,0.0670623779296875,0.0423431396484375
989,0.02508544921875,0.0720977783203125,0.0435333251953125
990,0.0282440185546875,0.0758056640625,0.0428924560546875
991,0.03277587890625,0.0797882080078125,0.0425262451171875
992,0.0364837646484375,0.0834503173828125,0.0449066162109375
993,0.043212890625,0.08587646484375,0.0456390380859375
994,0.0523681640625,0.0888519287109375,0.0428924560546875
995,0.06024169921875,0.0907745361328125,0.0394134521484375
996,0.0641326904296875,0.0917816162109375,0.0381317138671875
997,0.0663299560546875,0.0929718017578125,0.0358428955078125
998,0.07012939453125,0.0932464599609375,0.0347900390625
999,0.06646728515625,0.0932464599609375,0.0351104736328125
1000,0.062896728515625,0.0937042236328125,0.0360260009765625
1001,0.0591888427734375,0.0937957763671875,0.0392303466796875
1002,0.0572662353515625,0.0934295654296875,0.0405120849609375
1003,0.057220458984375,0.0917816162109375,0.0407867431640625
1004,0.0558013916015625,0.0911407470703125,0.0403289794921875
1005,0.054107666015625,0.0915985107421875,0.0399627685546875
1006,0.0505828857421875,0.09027099609375,0.0365753173828125
1007,0.0481109619140625,0.0881195068359375,0.035614013671875
1008,0.047607421875,0.08843994140625,0.03387451171875
1009,0.0414276123046875,0.08734130859375,0.03204345703125
1010,0.0291595458984375,0.0868377685546875,0.0321807861328125
1011,0.015518188476562498,0.08587646484375,0.0324554443359375
1012,0.0037994384765625,0.0852813720703125,0.0332794189453125
1013,-0.0048065185546875,0.0848236083984375,0.0332794189453125
1014,-0.01007080078125,0.08404541015625,0.0333709716796875
1015,-0.0091094970703125,0.0829925537109375,0.0344696044921875
1016,-0.0054473876953125,0.0834503173828125,0.0366668701171875
1017,-0.00164794921875,0.0844573974609375,0.0399627685546875
1018,0.0043487548828125,0.0845489501953125,0.0407867431640625
1019,0.0127716064453125,0.0835418701171875,0.0428009033203125
1020,0.0226593017578125,0.0812530517578125,0.0442657470703125
1021,0.028106689453125,0.0812530517578125,0.0441741943359375
1022,0.0320892333984375,0.0822601318359375,0.0435333251953125
1023,0.03387451171875,0.0817108154296875,0.0427093505859375
1024,0.03131103515625,0.0808868408203125,0.0420684814453125
1025,0.0276947021484375,0.0791473388671875,0.0430755615234375
1026,0.01885986328125,0.0776824951171875,0.0414276123046875
1027,0.0129547119140625,0.0753936767578125,0.0379486083984375
1028,0.0089263916015625,0.0736541748046875,0.0336456298828125
1029,0.002105712890625,0.0724639892578125,0.0314483642578125
1030,-0.0041656494140625,0.0699920654296875,0.0329132080078125
1031,-0.003936767578125,0.0669708251953125,0.0332794189453125
1032,0.0027008056640625,0.0644989013671875,0.03387451171875
1033,0.01483154296875,0.064178466796875,0.0354766845703125
1034,0.0251312255859375,0.062164306640625,0.036346435546875
1035,0.0315399169921875,0.0614776611328125,0.0354766845703125
1036,0.0373077392578125,0.0596466064453125,0.0340118408203125
1037,0.0428009033203125,0.0556182861328125,0.0336456298828125
1038,0.0475616455078125,0.0530548095703125,0.0331878662109375
1039,0.04888916015625,0.0507659912109375,0.036346435546875
1040,0.0455474853515625,0.0508575439453125,0.0385894775390625
1041,0.0401458740234375,0.05108642578125,0.0384979248046875
1042,0.0346527099609375,0.0515899658203125,0.0373077392578125
1043,0.0270538330078125,0.0517730712890625,0.03570556640625
1044,0.0157012939453125,0.0510406494140625,0.0322723388671875
1045,0.0046234130859375,0.050628662109375,0.0308990478515625
1046,0.0019683837890625,0.0496673583984375,0.033599853515625
1047,0.0066375732421875,0.05072021484375,0.03790283203125
1048,0.0146942138671875,0.05108642578125,0.0397796630859375
1049,0.02325439453125,0.05218505859375,0.0405120849609375
1050,0.0313568115234375,0.0514984130859375,0.0395965576171875
1051,0.0381317138671875,0.050628662109375,0.04010009765625
1052,0.0392303466796875,0.0485687255859375,0.037445068359375
1053,0.037811279296875,0.0461883544921875,0.0335540771484375
1054,0.0288848876953125,0.0458221435546875,0.03314208984375
1055,0.0172119140625,0.0461883544921875,0.0360260009765625
1056,0.0043487548828125,0.0468292236328125,0.038177490234375
1057,-0.0061798095703125,0.04852294921875,0.0349273681640625
1058,-0.0114898681640625,0.0482940673828125,0.0380401611328125
1059,-0.010894775390625,0.0461883544921875,0.0383148193359375
1060,-0.002838134765625,0.0453643798828125,0.0391387939453125
1061,0.0026092529296875,0.0460968017578125,0.0399627685546875
1062,0.0110321044921875,0.0474700927734375,0.0406951904296875
1063,0.0189056396484375,0.04852294921875,0.0395050048828125
1064,0.02325439453125,0.0486602783203125,0.0364837646484375
1065,0.02728271484375,0.0483856201171875,0.0361175537109375
1066,0.03021240234375,0.04815673828125,0.0335540771484375
1067,0.0344696044921875,0.0475616455078125,0.0336456298828125
1068,0.0395965576171875,0.0474700927734375,0.0355682373046875
1069,0.0428009033203125,0.0490264892578125,0.0354766845703125
1070,0.0364837646484375,0.0503997802734375,0.036346435546875
1071,0.02691650390625,0.0498504638671875,0.0360260009765625
1072,0.019683837890625,0.0493011474609375,0.0351104736328125
1073,0.0152435302734375,0.0478363037109375,0.0368499755859375
1074,0.0145111083984375,0.04632568359375,0.0375823974609375
1075,0.01959228515625,0.0460968017578125,0.03790283203125
1076,0.02508544921875,0.0454559326171875,0.039276123046875
1077,0.02984619140625,0.0458221435546875,0.0388641357421875
1078,0.0315399169921875,0.0465545654296875,0.0363006591796875
1079,0.0339202880859375,0.0462799072265625,0.0326385498046875
1080,0.0363006591796875,0.0471038818359375,0.031036376953124997
1081,0.0412445068359375,0.0484771728515625,0.0318145751953125
1082,0.047149658203125,0.0488433837890625,0.0324554443359375
1083,0.050628662109375,0.0485687255859375,0.0319061279296875
1084,0.0475616455078125,0.04815673828125,0.0330047607421875
1085,0.0431671142578125,0.048614501953125,0.03607177734375
1086,0.04046630859375,0.0493011474609375,0.03826904296875
1087,0.0364837646484375,0.04888916015625,0.04046630859375
1088,0.0319976806640625,0.0481109619140625,0.0395050048828125
1089,0.0299835205078125,0.0476531982421875,0.0387725830078125
1090,0.0304412841796875,0.0485687255859375,0.0383148193359375
1091,0.0300750732421875,0.0490264892578125,0.0395965576171875
1092,0.0271453857421875,0.0485687255859375,0.04229736328125
1093,0.0289764404296875,0.0475616455078125,0.0435333251953125
1094,0.0362091064453125,0.0465545654296875,0.0478363037109375
1095,0.0418853759765625,0.0476531982421875,0.0541534423828125
1096,0.0434417724609375,0.0480194091796875,0.06134033203124999
1097,0.045684814453125,0.0465545654296875,0.0716400146484375
1098,0.0496673583984375,0.0465545654296875,0.0762176513671875
1099,0.05364990234375,0.047149658203125,0.074798583984375
1100,0.0552520751953125,0.0485687255859375,0.0674285888671875
1101,0.0582733154296875,0.049530029296875,0.0577239990234375
1102,0.0569915771484375,0.0504913330078125,0.054473876953125
1103,0.0524139404296875,0.0513153076171875,0.0557098388671875
1104,0.0460968017578125,0.053009033203125,0.0578155517578125
1105,0.0350189208984375,0.0530548095703125,0.0583648681640625
1106,0.0205535888671875,0.0530548095703125,0.0618438720703125
1107,0.004852294921875,0.0541534423828125,0.0688018798828125
1108,-0.0059967041015625,0.0530548095703125,0.0753936767578125
1109,-0.0167999267578125,0.0506744384765625,0.0851898193359375
1110,-0.0189971923828125,0.051177978515625,0.09210205078125
1111,-0.0119476318359375,0.0525970458984375,0.0983734130859375
1112,-0.0036163330078125,0.0525970458984375,0.1044158935546875
1113,-0.0004119873046875,0.05328369140625,0.1090850830078125
1114,0.0031585693359375,0.0535125732421875,0.1130218505859375
1115,0.00677490234375,0.0527801513671875,0.1119232177734375
1116,0.0092010498046875,0.0532379150390625,0.1057891845703125
1117,0.0106658935546875,0.05291748046875,0.0986480712890625
1118,0.008514404296875,0.0533294677734375,0.0968170166015625
1119,0.0037078857421875,0.0525970458984375,0.0962677001953125
1120,-0.001556396484375,0.052825927734375,0.0925140380859375
1121,-0.0087890625,0.0528717041015625,0.0855560302734375
1122,-0.01409912109375,0.0523223876953125,0.0774993896484375
1123,-0.01556396484375,0.0511322021484375,0.0688934326171875
1124,-0.017303466796875,0.0507659912109375,0.05731201171875
1125,-0.0187225341796875,0.0499420166015625,0.0497589111328125
1126,-0.01666259765625,0.05145263671875,0.0479278564453125
1127,-0.0166168212890625,0.052093505859375,0.0434417724609375
1128,-0.0160675048828125,0.052276611328125,0.0424346923828125
1129,-0.0069122314453125,0.05255126953125,0.04266357421875
1130,0.00732421875,0.0515899658203125,0.04449462890625
1131,0.0170745849609375,0.050079345703125,0.0469207763671875
1132,0.0251312255859375,0.0486602783203125,0.0515899658203125
1133,0.0273284912109375,0.0464630126953125,0.0521392822265625
1134,0.0251312255859375,0.0472869873046875,0.0503997802734375
1135,0.0216522216796875,0.0464630126953125,0.04962158203125
1136,0.0213775634765625,0.0446319580078125,0.0471954345703125
1137,0.0240325927734375,0.0438995361328125,0.0431671142578125
1138,0.0280609130859375,0.044403076171875,0.0364837646484375
1139,0.0307159423828125,0.0468292236328125,0.02655029296875
1140,0.0354766845703125,0.047515869140625,0.018951416015625
1141,0.04156494140625,0.0493927001953125,0.0136871337890625
1142,0.049530029296875,0.0490264892578125,0.0091094970703125
1143,0.0590057373046875,0.0498504638671875,0.005035400390625
1144,0.0666046142578125,0.0503997802734375,0.00311279296875
1145,0.07122802734375,0.0493927001953125,0.0009613037109375
1146,0.07415771484375,0.049713134765625,0.0003204345703125
1147,0.0743865966796875,0.0491180419921875,0.000274658203125
1148,0.0702667236328125,0.0471954345703125,-0.00128173828125
1149,0.0646820068359375,0.045318603515625,-0.002838134765625
1150,0.0602874755859375,0.0450897216796875,-0.0040740966796875
1151,0.06536865234375,0.0453643798828125,-0.00439453125
1152,0.073699951171875,0.0442657470703125,-0.0024261474609375
1153,0.0791473388671875,0.0428009033203125,-0.0021514892578125
1154,0.0786895751953125,0.0424346923828125,-0.0016021728515625
1155,0.0850067138671875,0.0441741943359375,0.0001373291015625
1156,0.097869873046875,0.046966552734375,0.0018768310546875
1157,0.1058807373046875,0.0492095947265625,0.0028839111328125
1158,0.1110992431640625,0.049896240234375,0.0041656494140625
1159,0.1171417236328125,0.049163818359375,0.0049896240234375
1160,0.1229095458984375,0.04779052734375,0.0056304931640625
1161,0.1270294189453125,0.0454559326171875,0.00604248046875
1162,0.12483215332031249,0.0435333251953125,0.0059051513671875
1163,0.1175079345703125,0.0420684814453125,0.0056304931640625
1164,0.1061553955078125,0.0428009033203125,0.0036163330078125
1165,0.092559814453125,0.0435333251953125,-0.00018310546875
1166,0.0859222412109375,0.04376220703125,-0.0051727294921875
1167,0.0827178955078125,0.044036865234375,-0.00970458984375
1168,0.08221435546875,0.04486083984375,-0.0122222900390625
1169,0.0806121826171875,0.0467376708984375,-0.0128631591796875
1170,0.0778656005859375,0.0479278564453125,-0.01007080078125
1171,0.0742034912109375,0.0479278564453125,-0.0056304931640625
1172,0.073974609375,0.0460968017578125,-0.0025177001953125
1173,0.0753936767578125,0.04449462890625,4.57763671875e-05
1174,0.0739288330078125,0.0428009033203125,0.01116943359375
1175,0.07012939453125,0.0417022705078125,0.0334625244140625
1176,0.0641326904296875,0.0413360595703125,0.0632171630859375
1177,0.0566253662109375,0.0412445068359375,0.0969085693359375
1178,0.0478363037109375,0.0398712158203125,0.12744140625
1179,0.0384063720703125,0.03900146484375,0.1582489013671875
1180,0.0303497314453125,0.0403289794921875,0.1870880126953125
1181,0.029296875,0.0398712158203125,0.2053070068359375
1182,0.031173706054687503,0.0394134521484375,0.2072296142578125
1183,0.03240966796875,0.0397796630859375,0.1931304931640625
1184,0.030853271484374997,0.0406036376953125,0.1763763427734375
1185,0.0278778076171875,0.04010009765625,0.1696014404296875
1186,0.022613525390625,0.0406036376953125,0.1690521240234375
1187,0.0213775634765625,0.0417022705078125,0.1728057861328125
1188,0.0203704833984375,0.0410614013671875,0.1888275146484375
1189,0.0189971923828125,0.0388641357421875,0.2184906005859375
1190,0.0150604248046875,0.0391387939453125,0.25396728515625
1191,0.0046234130859375,0.0401458740234375,0.3039093017578125
1192,-0.0097503662109375,0.0406036376953125,0.39459228515625
1193,-0.0194549560546875,0.0381317138671875,0.49388122558593744
1194,-0.0261383056640625,0.034881591796875,0.5280303955078125
1195,-0.0308990478515625,0.0335540771484375,0.4728240966796875
1196,-0.0349273681640625,0.0331878662109375,0.3939971923828125
1197,-0.036529541015625,0.03460693359375,0.3386077880859375
1198,-0.0366668701171875,0.0361175537109375,0.2937469482421875
1199,-0.0387725830078125,0.0370330810546875,0.2719573974609375
1200,-0.040557861328125,0.03680419921875,0.2954864501953125
1201,-0.042572021484375,0.0361175537109375,0.3690948486328125
1202,-0.0454559326171875,0.0368499755859375,0.4585418701171875
1203,-0.046966552734375,0.0352020263671875,0.52606201171875
1204,-0.0450897216796875,0.0340118408203125,0.5566864013671875
1205,-0.0433502197265625,0.0329132080078125,0.55682373046875
1206,-0.0421600341796875,0.0324554443359375,0.5327911376953125
1207,-0.0395965576171875,0.0333709716796875,0.5000152587890625
1208,-0.03753662109375,0.0324554443359375,0.4744720458984375
1209,-0.0385894775390625,0.03167724609375,0.4609222412109375
1210,-0.040191650390625,0.03057861328125,0.45172119140625
1211,-0.0407867431640625,0.030807495117187503,0.4362030029296875
1212,-0.0406951904296875,0.0303497314453125,0.40484619140625
1213,-0.0397796630859375,0.0284271240234375,0.3585662841796875
1214,-0.0399627685546875,0.0270538330078125,0.301483154296875
1215,-0.0435333251953125,0.0276031494140625,0.2322235107421875
1216,-0.0470123291015625,0.0270538330078125,0.1593475341796875
1217,-0.04815673828125,0.0267333984375,0.093109130859375
1218,-0.047515869140625,0.0272369384765625,0.0402374267578125
1219,-0.0470123291015625,0.0287017822265625,-0.0013275146484375
1220,-0.04229736328125,0.0292510986328125,-0.0314483642578125
1221,-0.0308990478515625,0.0303497314453125,-0.0494842529296875
1222,-0.0186309814453125,0.0310821533203125,-0.060333251953125
1223,-0.0037994384765625,0.0308990478515625,-0.0704498291015625
1224,0.0214691162109375,0.030670166015624997,-0.0807952880859375
1225,0.05657958984375,0.0299835205078125,-0.0894012451171875
1226,0.0991973876953125,0.0299835205078125,-0.0982818603515625
1227,0.1370086669921875,0.0296173095703125,-0.107940673828125
1228,0.17413330078125,0.0297088623046875,-0.116912841796875
1229,0.2205047607421875,0.030624389648437503,-0.12336730957031251
1230,0.2610626220703125,0.0302581787109375,-0.1288604736328125
1231,0.2845458984375,0.0287933349609375,-0.1339874267578125
1232,0.2773590087890625,0.029022216796875,-0.1378326416015625
1233,0.2558441162109375,0.0286102294921875,-0.1392974853515625
1234,0.2416534423828125,0.0281524658203125,-0.1430511474609375
1235,0.237396240234375,0.0277862548828125,-0.1446990966796875
1236,0.2492523193359375,0.0276031494140625,-0.1458892822265625
1237,0.26165771484375,0.0287017822265625,-0.1487274169921875
1238,0.2812042236328125,0.028839111328125,-0.1522979736328125
1239,0.3192901611328125,0.02947998046875,-0.15216064453125
1240,0.38507080078125,0.0287933349609375,-0.1534881591796875
1241,0.4848175048828125,0.0274200439453125,-0.1538543701171875
1242,0.6100616455078125,0.02728271484375,-0.1552276611328125
1243,0.685089111328125,0.026641845703125,-0.1564178466796875
1244,0.6390838623046875,0.02362060546875,-0.1557769775390625
1245,0.54071044921875,0.0222930908203125,-0.1536712646484375
1246,0.4396820068359375,0.0241241455078125,-0.1506500244140625
1247,0.3484039306640625,0.02508544921875,-0.1498260498046875
1248,0.2840423583984375,0.02471923828125,-0.1493682861328125
1249,0.284088134765625,0.0258636474609375,-0.1511077880859375
1250,0.33856201171875,0.0275115966796875,-0.150054931640625
1251,0.40191650390625,0.0277862548828125,-0.1482696533203125
1252,0.440185546875,0.0274200439453125,-0.14813232421875
1253,0.4384002685546875,0.026275634765625,-0.1494598388671875
1254,0.4019622802734375,0.024261474609375,-0.1511993408203125
1255,0.3468475341796875,0.023162841796875,-0.1534881591796875
1256,0.2939300537109375,0.02142333984375,-0.1535797119140625
1257,0.24687194824218747,0.0211944580078125,-0.15069580078125
1258,0.21514892578125,0.0223846435546875,-0.1487274169921875
1259,0.20086669921875,0.0226593017578125,-0.147674560546875
1260,0.1901092529296875,0.0222015380859375,-0.14556884765625
1261,0.1691436767578125,0.0220184326171875,-0.14373779296875
1262,0.1367340087890625,0.0215606689453125,-0.1413116455078125
1263,0.0903167724609375,0.02032470703125,-0.13916015625
1264,0.04266357421875,0.0182647705078125,-0.13604736328125
1265,0.00311279296875,0.0202789306640625,-0.133026123046875
1266,-0.0316314697265625,0.0207366943359375,-0.1322479248046875
1267,-0.0607452392578125,0.022247314453125,-0.1316070556640625
1268,-0.0831298828125,0.0233917236328125,-0.13128662109375
1269,-0.1003875732421875,0.02508544921875,-0.1321563720703125
1270,-0.1169586181640625,0.0254058837890625,-0.131378173828125
1271,-0.1298675537109375,0.0238494873046875,-0.1303253173828125
1272,-0.1399383544921875,0.0234832763671875,-0.1291351318359375
1273,-0.1469879150390625,0.021331787109375,-0.1252899169921875
1274,-0.1525726318359375,0.01995849609375,-0.1219940185546875
1275,-0.1576080322265625,0.02069091796875,-0.1190643310546875
1276,-0.1608123779296875,0.0214691162109375,-0.1175994873046875
1277,-0.1613616943359375,0.0206451416015625,-0.1175079345703125
1278,-0.1642913818359375,0.0225677490234375,-0.1171417236328125
1279,-0.1680450439453125,0.0230255126953125,-0.1138916015625
1280,-0.1742706298828125,0.02178955078125,-0.11444091796875
1281,-0.1799468994140625,0.02105712890625,-0.1142120361328125
1282,-0.1846160888671875,0.0222015380859375,-0.113525390625
1283,-0.1870880126953125,0.021331787109375,-0.1132049560546875
1284,-0.1926727294921875,0.02069091796875,-0.113616943359375
1285,-0.1962432861328125,0.0216522216796875,-0.1136627197265625
1286,-0.198394775390625,0.0197296142578125,-0.1129302978515625
1287,-0.2021942138671875,0.0170745849609375,-0.1133880615234375
1288,-0.2060394287109375,0.0151519775390625,-0.11334228515625
1289,-0.2058563232421875,0.015472412109375,-0.112884521484375
1290,-0.2057647705078125,0.015335083007812498,-0.1107330322265625
1291,-0.2056732177734375,0.0124969482421875,-0.1095428466796875
1292,-0.20196533203125,0.0109405517578125,-0.1083526611328125
1293,-0.1957855224609375,0.0098419189453125,-0.10675048828125
1294,-0.1904754638671875,0.0101165771484375,-0.1058807373046875
1295,-0.1861724853515625,0.0119476318359375,-0.1056060791015625
1296,-0.1836090087890625,0.01519775390625,-0.1054229736328125
1297,-0.1835174560546875,0.0204620361328125,-0.1067047119140625
1298,-0.183380126953125,0.02215576171875,-0.107208251953125
1299,-0.1840667724609375,0.0230255126953125,-0.1083526611328125
1300,-0.1832427978515625,0.023712158203125,-0.10931396484375
1301,-0.1821441650390625,0.02288818359375,-0.108856201171875
1302,-0.18218994140625,0.0214691162109375,-0.1078948974609375
1303,-0.180633544921875,0.0233917236328125,-0.1078033447265625
1304,-0.176788330078125,0.0254974365234375,-0.1086273193359375
1305,-0.17193603515625,0.028289794921875,-0.1094970703125
1306,-0.1689605712890625,0.03167724609375,-0.1088104248046875
1307,-0.1687774658203125,0.0413360595703125,-0.1076202392578125
1308,-0.1691436767578125,0.0510406494140625,-0.107574462890625
1309,-0.16900634765625,0.0498504638671875,-0.1081695556640625
1310,-0.1679534912109375,0.0396881103515625,-0.1108245849609375
1311,-0.1680450439453125,0.0293426513671875,-0.1134796142578125
1312,-0.1686859130859375,0.02398681640625,-0.1143951416015625
1313,-0.168182373046875,0.0244903564453125,-0.1154022216796875
1314,-0.165252685546875,0.0307159423828125,-0.1164093017578125
1315,-0.1640625,0.0387725830078125,-0.1183319091796875
1316,-0.1658477783203125,0.0440826416015625,-0.1181488037109375
1317,-0.1681365966796875,0.0498504638671875,-0.119384765625
1318,-0.167633056640625,0.0596923828125,-0.1215362548828125
1319,-0.1669464111328125,0.0697174072265625,-0.1236419677734375
1320,-0.1660308837890625,0.0744781494140625,-0.12464904785156251
1321,-0.1649322509765625,0.0760345458984375,-0.1251068115234375
1322,-0.16387939453125,0.078643798828125,-0.1251068115234375
1323,-0.1629638671875,0.0840911865234375,-0.1238250732421875
1324,-0.16278076171875,0.0888519287109375,-0.1250152587890625
1325,-0.1620941162109375,0.089630126953125,-0.1273956298828125
1326,-0.1628265380859375,0.0833587646484375,-0.1296844482421875
1327,-0.1619110107421875,0.0733795166015625,-0.1305084228515625
1328,-0.1613616943359375,0.0660552978515625,-0.1309661865234375
1329,-0.1618194580078125,0.0622100830078125,-0.1322021484375
1330,-0.1636505126953125,0.0606536865234375,-0.1334381103515625
1331,-0.1636505126953125,0.0591888427734375,-0.1339874267578125
1332,-0.1615447998046875,0.05438232421875,-0.1349029541015625
1333,-0.1616363525390625,0.04779052734375,-0.13604736328125
1334,-0.157012939453125,0.0388641357421875,-0.1360015869140625
1335,-0.15362548828125,0.02911376953125,-0.1358184814453125
1336,-0.1536712646484375,0.0211944580078125,-0.1373748779296875
1337,-0.1556854248046875,0.01409912109375,-0.1384735107421875
1338,-0.1602630615234375,0.0102996826171875,-0.13824462890625
1339,-0.1682281494140625,0.0093841552734375,-0.1384735107421875
1340,-0.1784820556640625,0.014007568359375,-0.1403961181640625
1341,-0.1842498779296875,0.0185394287109375,-0.14154052734375
1342,-0.1870880126953125,0.018585205078125,-0.1420440673828125
1343,-0.185760498046875,0.018035888671875,-0.1418609619140625
1344,-0.1810455322265625,0.0174407958984375,-0.143280029296875
1345,-0.1759185791015625,0.0167999267578125,-0.144012451171875
1346,-0.16864013671875,0.0183563232421875,-0.145477294921875
1347,-0.158843994140625,0.01885986328125,-0.1457061767578125
1348,-0.1523895263671875,0.0157012939453125,-0.1420440673828125
1349,-0.1506500244140625,0.0128631591796875,-0.13897705078125
1350,-0.1564178466796875,0.0093841552734375,-0.1360015869140625
1351,-0.1632843017578125,0.005767822265625,-0.132659912109375
1352,-0.1652984619140625,0.0014190673828125,-0.1286773681640625
1353,-0.16644287109375,-0.0019683837890625,-0.12579345703125
1354,-0.1669464111328125,-0.00421142578125,-0.12419128417968749
1355,-0.1684112548828125,-0.0065460205078125,-0.12249755859375001
1356,-0.16717529296875,-0.0099334716796875,-0.1197967529296875
1357,-0.165985107421875,-0.0127716064453125,-0.1161346435546875
1358,-0.1650238037109375,-0.0167999267578125,-0.1134796142578125
1359,-0.1659393310546875,-0.0193634033203125,-0.1082611083984375
1360,-0.1650238037109375,-0.0198211669921875,-0.1024932861328125
1361,-0.1641998291015625,-0.0182647705078125,-0.09796142578125
1362,-0.1658935546875,-0.016021728515625,-0.0946197509765625
1363,-0.1709747314453125,-0.0142822265625,-0.0900421142578125
1364,-0.1735382080078125,-0.0146026611328125,-0.0852813720703125
1365,-0.1779327392578125,-0.0168914794921875,-0.0787811279296875
1366,-0.1828765869140625,-0.0190887451171875,-0.07269287109375
1367,-0.1884613037109375,-0.0199127197265625,-0.0677032470703125
1368,-0.191619873046875,-0.0177154541015625,-0.06243896484374999
1369,-0.1914825439453125,-0.015838623046875,-0.0569000244140625
1370,-0.191070556640625,-0.0149688720703125,-0.0500335693359375
1371,-0.19171142578125,-0.013458251953125,-0.0432586669921875
1372,-0.1937255859375,-0.0140533447265625,-0.03570556640625
1373,-0.1947784423828125,-0.01556396484375,-0.02801513671875
1374,-0.193817138671875,-0.0175323486328125,-0.0196380615234375
1375,-0.1920318603515625,-0.0207366943359375,-0.0114898681640625
1376,-0.1944122314453125,-0.0240325927734375,-0.0040740966796875
1377,-0.2004547119140625,-0.0263214111328125,0.0016937255859375
1378,-0.2069091796875,-0.02764892578125,0.0091094970703125
1379,-0.2119903564453125,-0.0255889892578125,0.01702880859375
1380,-0.2191314697265625,-0.0166168212890625,0.0236663818359375
1381,-0.2231597900390625,-0.0080108642578125,0.0296173095703125
1382,-0.2201385498046875,-0.00384521484375,0.036346435546875
1383,-0.2197723388671875,0.0025177001953125,0.04266357421875
1384,-0.22412109375,0.01885986328125,0.0497589111328125
1385,-0.2303009033203125,0.0480194091796875,0.0560760498046875
1386,-0.2327728271484375,0.0837249755859375,0.059967041015625
1387,-0.232818603515625,0.1163177490234375,0.0643157958984375
1388,-0.23272705078125,0.1404876708984375,0.070037841796875
1389,-0.2334136962890625,0.16827392578125,0.0774993896484375
1390,-0.2346038818359375,0.1903839111328125,0.08258056640625
1391,-0.2352447509765625,0.1971588134765625,0.08734130859375
1392,-0.2336883544921875,0.1758270263671875,0.0933380126953125
1393,-0.2323150634765625,0.147857666015625,0.0991973876953125
1394,-0.2322235107421875,0.1418609619140625,0.1028594970703125
1395,-0.2284698486328125,0.1522979736328125,0.1059722900390625
1396,-0.2247161865234375,0.1680450439453125,0.1081695556640625
1397,-0.2216949462890625,0.1823272705078125,0.1093597412109375
1398,-0.21917724609375,0.1965179443359375,0.111236572265625
1399,-0.2146453857421875,0.2211456298828125,0.1149444580078125
1400,-0.2095184326171875,0.27337646484375,0.11663818359375
1401,-0.2036590576171875,0.360626220703125,0.1194305419921875
1402,-0.2014617919921875,0.4858245849609375,0.11993408203125
1403,-0.2021026611328125,0.614044189453125,0.1202545166015625
1404,-0.2026519775390625,0.66796875,0.120025634765625
1405,-0.1991729736328125,0.65423583984375,0.1200714111328125
1406,-0.1933135986328125,0.625762939453125,0.1211700439453125
1407,-0.1861724853515625,0.6004486083984375,0.1222686767578125
1408,-0.1754608154296875,0.5861663818359375,0.1224517822265625
1409,-0.16021728515625,0.60003662109375,0.1214447021484375
1410,-0.1455230712890625,0.6539154052734375,0.1200714111328125
1411,-0.1327056884765625,0.72052001953125,0.11773681640625
1412,-0.1245574951171875,0.764739990234375,0.11627197265625
1413,-0.1173248291015625,0.7734832763671875,0.1154022216796875
1414,-0.1118316650390625,0.7326507568359375,0.114715576171875
1415,-0.10528564453125,0.6603240966796875,0.11627197265625
1416,-0.09722900390625,0.58575439453125,0.11773681640625
1417,-0.08349609375,0.5189666748046875,0.1186981201171875
1418,-0.07196044921875,0.4664154052734375,0.11590576171875
1419,-0.062896728515625,0.4225616455078125,0.1137542724609375
1420,-0.056671142578125,0.3893280029296875,0.1122894287109375
1421,-0.0468292236328125,0.3532562255859375,0.1127471923828125
1422,-0.0376739501953125,0.3075714111328125,0.1113739013671875
1423,-0.0304412841796875,0.2490692138671875,0.1105499267578125
1424,-0.0264129638671875,0.187408447265625,0.1099090576171875
1425,-0.0199127197265625,0.1307830810546875,0.1088104248046875
1426,-0.0122222900390625,0.0827178955078125,0.1080780029296875
1427,-0.00494384765625,0.0405120849609375,0.1053314208984375
1428,0.0016937255859375,0.0003204345703125,0.10272216796875
1429,0.0084686279296875,-0.0358428955078125,0.1025848388671875
1430,0.0151519775390625,-0.0677947998046875,0.1035003662109375
1431,0.01922607421875,-0.0948944091796875,0.1050567626953125
1432,0.0200958251953125,-0.114349365234375,0.1045074462890625
1433,0.0195465087890625,-0.130645751953125,0.1035003662109375
1434,0.0201873779296875,-0.1458892822265625,0.10125732421875
1435,0.0215606689453125,-0.1594390869140625,0.0978240966796875
1436,0.02325439453125,-0.1681365966796875,0.0946197509765625
1437,0.02178955078125,-0.17413330078125,0.09100341796875
1438,0.0248565673828125,-0.1797637939453125,0.0879364013671875
1439,0.03057861328125,-0.18438720703125,0.0868377685546875
1440,0.0344696044921875,-0.188323974609375,0.0877532958984375
1441,0.038543701171875,-0.1934051513671875,0.0896759033203125
1442,0.0469207763671875,-0.197479248046875,0.09063720703125
1443,0.0557098388671875,-0.2000885009765625,0.0907745361328125
1444,0.0614776611328125,-0.2018280029296875,0.0914154052734375
1445,0.0619354248046875,-0.2028350830078125,0.0913238525390625
1446,0.06243896484374999,-0.20489501953125,0.0874786376953125
1447,0.0625762939453125,-0.2076416015625,0.0849151611328125
1448,0.0636749267578125,-0.20965576171875,0.0837249755859375
1449,0.0657806396484375,-0.210296630859375,0.0838165283203125
1450,0.0651397705078125,-0.21112060546875,0.0835418701171875
1451,0.0643157958984375,-0.2119903564453125,0.0827178955078125
1452,0.0636749267578125,-0.2137298583984375,0.08148193359375
1453,0.0623016357421875,-0.2147369384765625,0.0796966552734375
1454,0.0633087158203125,-0.2157440185546875,0.0797882080078125
1455,0.06207275390624999,-0.2153778076171875,0.07928466796875
1456,0.0590057373046875,-0.2154693603515625,0.0780487060546875
1457,0.05657958984375,-0.2156524658203125,0.0786895751953125
1458,0.0566253662109375,-0.217071533203125,0.080657958984375
1459,0.0566253662109375,-0.2192230224609375,0.08184814453125
1460,0.0535125732421875,-0.2205963134765625,0.0816192626953125
1461,0.0479278564453125,-0.21881103515625,0.0838165283203125
1462,0.0420684814453125,-0.2165679931640625,0.0861053466796875
1463,0.0397796630859375,-0.2155609130859375,0.08734130859375
1464,0.0389556884765625,-0.2144622802734375,0.0873870849609375
1465,0.0369415283203125,-0.2138214111328125,0.0862884521484375
1466,0.0390472412109375,-0.213409423828125,0.0857391357421875
1467,0.0414276123046875,-0.2120819091796875,0.0837249755859375
1468,0.04339599609375,-0.2108917236328125,0.08258056640625
1469,0.0426177978515625,-0.2098388671875,0.08074951171875
1470,0.0406951904296875,-0.2103424072265625,0.0803375244140625
1471,0.04083251953125,-0.2101593017578125,0.0794219970703125
1472,0.0424346923828125,-0.208282470703125,0.079376220703125
1473,0.0428466796875,-0.2092437744140625,0.0808868408203125
1474,0.039276123046875,-0.2082366943359375,0.0834503173828125
1475,0.035247802734375,-0.2085113525390625,0.0830841064453125
1476,0.0281524658203125,-0.2075958251953125,0.082672119140625
1477,0.0229339599609375,-0.2051239013671875,0.0815277099609375
1478,0.0208282470703125,-0.203338623046875,0.08111572265625
1479,0.0194549560546875,-0.2025604248046875,0.08074951171875
1480,0.0140533447265625,-0.2018280029296875,0.08038330078125
1481,0.008697509765625,-0.20123291015625,0.0798797607421875
1482,0.011993408203125,-0.1988983154296875,0.07891845703125
1483,0.0148773193359375,-0.1988067626953125,0.07928466796875
1484,0.01629638671875,-0.1988067626953125,0.08001708984375
1485,0.017303466796875,-0.200775146484375,0.0808868408203125
1486,0.0185394287109375,-0.2017364501953125,0.08148193359375
1487,0.0175323486328125,-0.2015533447265625,0.0823516845703125
1488,0.0183563232421875,-0.19903564453125,0.08221435546875
1489,0.0189056396484375,-0.1955108642578125,0.0798797607421875
1490,0.0170745849609375,-0.194000244140625,0.0795135498046875
1491,0.0150604248046875,-0.1923980712890625,0.0793304443359375
1492,0.0116729736328125,-0.19024658203125,0.0805206298828125
1493,0.00897216796875,-0.1890106201171875,0.0822601318359375
1494,0.0013275146484375,-0.1867218017578125,0.0830841064453125
1495,-0.0015106201171875,-0.184661865234375,0.08221435546875
1496,-0.00018310546875,-0.1839752197265625,0.0816650390625
1497,0.0021514892578125,-0.184661865234375,0.0812530517578125
1498,0.0044403076171875,-0.1853485107421875,0.0809783935546875
1499,0.0091094970703125,-0.18365478515625,0.0800628662109375
1500,0.0142364501953125,-0.1820526123046875,0.0800628662109375
1501,0.014923095703125,-0.1819610595703125,0.0798797607421875
1502,0.0113067626953125,-0.18072509765625,0.0786895751953125
1503,0.0084686279296875,-0.1799468994140625,0.0775909423828125
1504,0.0073699951171875,-0.1810455322265625,0.076446533203125
1505,0.00567626953125,-0.1817779541015625,0.074615478515625
1506,0.00311279296875,-0.1804962158203125,0.0745697021484375
1507,-9.1552734375e-05,-0.178619384765625,0.0753936767578125
1508,-0.001922607421875,-0.1794891357421875,0.07562255859375
1509,-0.0001373291015625,-0.1820526123046875,0.0764923095703125
1510,-0.0007781982421875,-0.1820526123046875,0.07781982421875
1511,0.0018768310546875,-0.1814117431640625,0.0783233642578125
1512,0.0041656494140625,-0.1814117431640625,0.0784149169921875
1513,0.0085601806640625,-0.1818695068359375,0.0777740478515625
1514,0.01080322265625,-0.1834259033203125,0.0767669677734375
1515,0.011077880859375,-0.1847076416015625,0.0768585205078125
1516,0.0088348388671875,-0.1858978271484375,0.07635498046875
1517,0.0076446533203125,-0.1879119873046875,0.0753021240234375
1518,0.0059051513671875,-0.1880035400390625,0.0743408203125
1519,0.0040740966796875,-0.1867218017578125,0.0745697021484375
1520,0.0046234130859375,-0.1880035400390625,0.0756683349609375
1521,0.006317138671875,-0.1892852783203125,0.0750274658203125
1522,0.0080108642578125,-0.18951416015625,0.0760345458984375
1523,0.01226806640625,-0.1894683837890625,0.0768585205078125
1524,0.0134124755859375,-0.1918487548828125,0.0774993896484375
1525,0.01080322265625,-0.19464111328125,0.0782318115234375
1526,0.0091094970703125,-0.1970672607421875,0.07855224609375
1527,0.0118560791015625,-0.199493408203125,0.0778656005859375
1528,0.0123138427734375,-0.20269775390625,0.0769500732421875
1529,0.0134124755859375,-0.2065887451171875,0.0758514404296875
1530,0.0200042724609375,-0.2096099853515625,0.0741119384765625
1531,0.0251312255859375,-0.21258544921875,0.0726470947265625
1532,0.0231170654296875,-0.2164764404296875,0.07232666015625
1533,0.0188140869140625,-0.2186737060546875,0.0731048583984375
1534,0.0135040283203125,-0.2196807861328125,0.07342529296875
1535,0.0053558349609375,-0.221282958984375,0.0732879638671875
1536,-0.0016937255859375,-0.222198486328125,0.07269287109375
1537,-0.0045318603515625,-0.222930908203125,0.072052001953125
1538,-0.0070037841796875,-0.2246246337890625,0.0728302001953125
1539,-0.0098876953125,-0.2267303466796875,0.0744781494140625
1540,-0.0131378173828125,-0.22979736328125,0.07525634765625
1541,-0.0115814208984375,-0.2327728271484375,0.0748443603515625
1542,-0.0047149658203125,-0.2366180419921875,0.0751190185546875
1543,0.0016021728515625,-0.239044189453125,0.075347900390625
1544,0.0064544677734375,-0.2412872314453125,0.07415771484375
1545,0.0107574462890625,-0.2428436279296875,0.0742034912109375
1546,0.0127716064453125,-0.2430267333984375,0.0742950439453125
1547,0.0146026611328125,-0.2440338134765625,0.07342529296875
1548,0.0164337158203125,-0.24591064453125,0.071136474609375
1549,0.0193634033203125,-0.246002197265625,0.07159423828125
1550,0.0211029052734375,-0.2476043701171875,0.0725555419921875
1551,0.01629638671875,-0.24934387207031253,0.0703125
1552,0.0127716064453125,-0.2508087158203125,0.069580078125
1553,0.0186309814453125,-0.2507171630859375,0.07012939453125
1554,0.0237579345703125,-0.2499847412109375,0.0700836181640625
1555,0.0242156982421875,-0.248931884765625,0.07159423828125
1556,0.02142333984375,-0.24797058105468753,0.0720062255859375
1557,0.02215576171875,-0.2476043701171875,0.0713653564453125
1558,0.0275115966796875,-0.24659729003906253,0.0702667236328125
1559,0.0325469970703125,-0.2445831298828125,0.0687103271484375
1560,0.0346527099609375,-0.2417449951171875,0.0694427490234375
1561,0.0338287353515625,-0.2391815185546875,0.0699005126953125
1562,0.03350830078125,-0.2361602783203125,0.0698089599609375
1563,0.0319061279296875,-0.23382568359375,0.0685272216796875
1564,0.0259552001953125,-0.230804443359375,0.0672454833984375
1565,0.01483154296875,-0.228057861328125,0.0674285888671875
1566,0.0071868896484375,-0.2248992919921875,0.0671539306640625
1567,0.00311279296875,-0.2208709716796875,0.0670623779296875
1568,-0.0056304931640625,-0.2154693603515625,0.0680694580078125
1569,-0.0146026611328125,-0.2110748291015625,0.0677032470703125
1570,-0.01959228515625,-0.2066802978515625,0.0688018798828125
1571,-0.022796630859375,-0.2021484375,0.070953369140625
1572,-0.0246734619140625,-0.1975250244140625,0.0724639892578125
1573,-0.024078369140625,-0.1907501220703125,0.0716400146484375
1574,-0.0234832763671875,-0.1842498779296875,0.0693511962890625
1575,-0.0206451416015625,-0.1753692626953125,0.068389892578125
1576,-0.01483154296875,-0.16680908203125,0.0666046142578125
1577,-0.00860595703125,-0.1579742431640625,0.06573486328125
1578,-0.0059967041015625,-0.1490020751953125,0.0640411376953125
1579,-0.0054931640625,-0.1397552490234375,0.06243896484374999
1580,-0.00897216796875,-0.1296844482421875,0.06243896484374999
1581,-0.013824462890625,-0.120391845703125,0.06211853027343749
1582,-0.0135040283203125,-0.11151123046875,0.06211853027343749
1583,-0.00677490234375,-0.1038665771484375,0.06390380859375
1584,-0.0007781982421875,-0.0948944091796875,0.06463623046875
1585,0.006866455078125,-0.0836334228515625,0.06463623046875
1586,0.015335083007812498,-0.07196044921875,0.0650482177734375
1587,0.0186309814453125,-0.0619354248046875,0.0644073486328125
1588,0.01611328125,-0.053375244140625,0.0642242431640625
1589,0.0142364501953125,-0.0453643798828125,0.0644073486328125
1590,0.0134124755859375,-0.0358428955078125,0.0634002685546875
1591,0.0132293701171875,-0.0265960693359375,0.0637664794921875
1592,0.011993408203125,-0.0172576904296875,0.064544677734375
1593,0.0102081298828125,-0.00970458984375,0.0648651123046875
1594,0.014556884765625,-0.0023345947265625,0.063629150390625
1595,0.0192718505859375,0.0046234130859375,0.0628509521484375
1596,0.0171661376953125,0.0098419189453125,0.0626678466796875
1597,0.0110321044921875,0.0163421630859375,0.0625762939453125
1598,0.0045318603515625,0.0218353271484375,0.06175231933593749
1599,0.0035247802734375,0.0269622802734375,0.0604705810546875
1600,0.0070953369140625,0.03277587890625,0.0596923828125
1601,0.0097503662109375,0.0398712158203125,0.05914306640625
1602,0.0092010498046875,0.0461883544921875,0.0578155517578125
1603,0.008697509765625,0.0519561767578125,0.0564422607421875
1604,0.0076904296875,0.05731201171875,0.056121826171875
1605,0.0058135986328125,0.0628509521484375,0.0541534423828125
1606,0.0032501220703125,0.0676116943359375,0.052459716796875
1607,0.0031585693359375,0.0702667236328125,0.0525970458984375
1608,0.002197265625,0.0716400146484375,0.0536956787109375
1609,0.0066375732421875,0.074981689453125,0.0544281005859375
1610,0.0092926025390625,0.0769500732421875,0.0545196533203125
1611,0.0089263916015625,0.0776824951171875,0.055389404296875
1612,0.0090179443359375,0.0767669677734375,0.0578155517578125
1613,0.00146484375,0.0753936767578125,0.0581817626953125
1614,-0.01190185546875,0.0749359130859375,0.057769775390625
1615,-0.0250396728515625,0.0756683349609375,0.0564422607421875
1616,-0.0384063720703125,0.0751190185546875,0.0559844970703125
1617,-0.0482940673828125,0.0753021240234375,0.0557098388671875
1618,-0.04595947265625,0.0771331787109375,0.05584716796875
1619,-0.0354766845703125,0.0778656005859375,0.0556182861328125
1620,-0.0233917236328125,0.0786895751953125,0.0550689697265625
1621,-0.0146942138671875,0.078369140625,0.05438232421875
1622,-0.0057220458984375,0.077178955078125,0.052642822265625
1623,0.0005950927734375,0.0765838623046875,0.0535125732421875
1624,0.00311279296875,0.0764007568359375,0.0534210205078125
1625,0.00494384765625,0.0750274658203125,0.0529632568359375
1626,0.0126800537109375,0.0725555419921875,0.0524139404296875
1627,0.0226593017578125,0.0696258544921875,0.051727294921875
1628,0.030624389648437503,0.0672454833984375,0.0513153076171875
1629,0.0322723388671875,0.0658721923828125,0.0515899658203125
1630,0.0296173095703125,0.0661468505859375,0.0525970458984375
1631,0.0220184326171875,0.066009521484375,0.0505828857421875
1632,0.0172576904296875,0.064727783203125,0.0490264892578125
1633,0.0184478759765625,0.0632171630859375,0.0485687255859375
1634,0.021240234375,0.06175231933593749,0.0507659912109375
1635,0.0230255126953125,0.060150146484375,0.0530548095703125
1636,0.02215576171875,0.0586395263671875,0.0524139404296875
1637,0.0211029052734375,0.0563507080078125,0.0504913330078125
1638,0.0135955810546875,0.054840087890625,0.0498504638671875
1639,0.0070037841796875,0.05218505859375,0.0498504638671875
1640,0.0004119873046875,0.04998779296875,0.04888916015625
1641,-0.00311279296875,0.0482940673828125,0.0499420166015625
1642,-0.0089263916015625,0.044769287109375,0.0499420166015625
1643,-0.011260986328125,0.0441741943359375,0.0471038818359375
1644,-0.0055389404296875,0.0436248779296875,0.0454559326171875
1645,0.0029754638671875,0.0427093505859375,0.0452728271484375
1646,0.0089263916015625,0.0418853759765625,0.0439910888671875
1647,0.0174407958984375,0.04083251953125,0.044036865234375
1648,0.0235748291015625,0.0405120849609375,0.043670654296875
1649,0.0276947021484375,0.04266357421875,0.0442657470703125
1650,0.0278778076171875,0.0395965576171875,0.0443572998046875
1651,0.02325439453125,0.0366668701171875,0.0445404052734375
1652,0.016845703125,0.034881591796875,0.0452728271484375
1653,0.0127716064453125,0.0336456298828125,0.0454559326171875
1654,0.01116943359375,0.033416748046875,0.0456390380859375
1655,0.0104827880859375,0.0332794189453125,0.0435333251953125
1656,0.014373779296875,0.03350830078125,0.0406951904296875
1657,0.01885986328125,0.0324554443359375,0.0391387939453125
1658,0.0204620361328125,0.0312652587890625,0.0381317138671875
1659,0.0206451416015625,0.030487060546875,0.0396881103515625
1660,0.0243072509765625,0.028472900390625,0.040557861328125
1661,0.02728271484375,0.0269622802734375,0.03826904296875
1662,0.0305328369140625,0.0270538330078125,0.0365753173828125
1663,0.03350830078125,0.0263214111328125,0.03826904296875
1664,0.0324554443359375,0.0269622802734375,0.04119873046875
1665,0.0365753173828125,0.0274200439453125,0.04595947265625
1666,0.0446319580078125,0.0261383056640625,0.0512237548828125
1667,0.0516357421875,0.02362060546875,0.0535125732421875
1668,0.049896240234375,0.0223846435546875,0.0556182861328125
1669,0.0435791015625,0.0237579345703125,0.0574493408203125
1670,0.0460052490234375,0.02325439453125,0.0577239990234375
1671,0.050994873046875,0.0223846435546875,0.05657958984375
1672,0.0498046875,0.0200958251953125,0.0550689697265625
1673,0.0508575439453125,0.0178070068359375,0.0536041259765625
1674,0.0548858642578125,0.0152435302734375,0.053924560546875
1675,0.065460205078125,0.01483154296875,0.0549774169921875
1676,0.0727386474609375,0.015609741210937498,0.05694580078125
1677,0.0725555419921875,0.015838623046875,0.0629425048828125
1678,0.0735626220703125,0.0157012939453125,0.0742950439453125
1679,0.0731964111328125,0.015426635742187498,0.08221435546875
1680,0.073516845703125,0.01702880859375,0.0808868408203125
1681,0.0750274658203125,0.0163421630859375,0.0780487060546875
1682,0.0792388916015625,0.0146026611328125,0.0742950439453125
1683,0.0790557861328125,0.013458251953125,0.0731964111328125
1684,0.0820770263671875,0.0137786865234375,0.0775909423828125
1685,0.07781982421875,0.0127716064453125,0.0850982666015625
1686,0.07745361328125,0.0130462646484375,0.0926513671875
1687,0.0816192626953125,0.0138702392578125,0.0996551513671875
1688,0.08660888671875,0.0134124755859375,0.1038665771484375
1689,0.0870208740234375,0.0130462646484375,0.1082611083984375
1690,0.0899505615234375,0.0121307373046875,0.1143035888671875
1691,0.095855712890625,0.0127716064453125,0.1177825927734375
1692,0.0963592529296875,0.0134124755859375,0.1203460693359375
1693,0.09942626953125,0.0144195556640625,0.1243743896484375
1694,0.10931396484375,0.0145111083984375,0.12615966796875
1695,0.118927001953125,0.0143280029296875,0.1209869384765625
1696,0.1221771240234375,0.015106201171875,0.1101837158203125
1697,0.1212615966796875,0.01593017578125,0.10015869140625
1698,0.1259307861328125,0.0181732177734375,0.09173583984375
1699,0.1304168701171875,0.0196380615234375,0.0868377685546875
1700,0.1257476806640625,0.02105712890625,0.0849151611328125
1701,0.1219940185546875,0.0210113525390625,0.0838165283203125
1702,0.12506103515625,0.0211944580078125,0.0813446044921875
1703,0.1308746337890625,0.0204620361328125,0.0756683349609375
1704,0.1385650634765625,0.01995849609375,0.0662384033203125
1705,0.1424102783203125,0.0224761962890625,0.055938720703125
1706,0.1457061767578125,0.02398681640625,0.0459136962890625
1707,0.1434173583984375,0.0226593017578125,0.0369415283203125
1708,0.1423187255859375,0.0204620361328125,0.0340118408203125
1709,0.13897705078125,0.0190887451171875,0.0318145751953125
1710,0.1354522705078125,0.0179443359375,0.0315399169921875
1711,0.14007568359375,0.018035888671875,0.03460693359375
1712,0.1377410888671875,0.0172576904296875,0.0375823974609375
1713,0.13897705078125,0.017669677734375,0.0386810302734375
1714,0.1328887939453125,0.0189056396484375,0.0377655029296875
1715,0.1255645751953125,0.0197296142578125,0.0370330810546875
1716,0.11846923828125,0.0195465087890625,0.037994384765625
1717,0.1127471923828125,0.0183563232421875,0.0396881103515625
1718,0.1060638427734375,0.0208282470703125,0.036346435546875
1719,0.0983734130859375,0.0224761962890625,0.0298004150390625
1720,0.0901336669921875,0.0222930908203125,0.022705078125
1721,0.08074951171875,0.02215576171875,0.0184478759765625
1722,0.07159423828125,0.0235748291015625,0.0146942138671875
1723,0.0647735595703125,0.0226593017578125,0.011444091796875
1724,0.0596923828125,0.022796630859375,0.0085601806640625
1725,0.0580902099609375,0.02398681640625,0.0062255859375
1726,0.0539703369140625,0.0254058837890625,0.0025177001953125
1727,0.0436248779296875,0.02655029296875,0.0005035400390625
1728,0.0320892333984375,0.0252227783203125,-0.001007080078125
1729,0.0254058837890625,0.0253143310546875,-0.002105712890625
1730,0.0224761962890625,0.0237579345703125,-0.0056304931640625
1731,0.0192718505859375,0.0220184326171875,-0.0088348388671875
1732,0.015472412109375,0.02215576171875,-0.0097503662109375
1733,0.0104827880859375,0.0228424072265625,-0.0098419189453125
1734,0.0055389404296875,0.0225677490234375,-0.0088348388671875
1735,0.00128173828125,0.02215576171875,-0.00860595703125
1736,-0.0077362060546875,0.0222015380859375,-0.0081939697265625
1737,-0.02178955078125,0.0214691162109375,-0.0084686279296875
1738,-0.0356597900390625,0.0192718505859375,-0.00677490234375
1739,-0.044677734375,0.01922607421875,-0.0059051513671875
1740,-0.04522705078125,0.0192718505859375,-0.005584716796875
1741,-0.0420684814453125,0.0189056396484375,-0.0056304931640625
1742,-0.039642333984375,0.02069091796875,-0.0070953369140625
1743,-0.0417022705078125,0.0233001708984375,-0.0071868896484375
1744,-0.0410614013671875,0.0218353271484375,-0.00714111328125
1745,-0.0395050048828125,0.01995849609375,-0.009979248046875
1746,-0.040740966796875,0.0189971923828125,-0.015518188476562498
1747,-0.0419769287109375,0.0172576904296875,-0.0194549560546875
1748,-0.0384979248046875,0.0145111083984375,-0.0215606689453125
1749,-0.0365753173828125,0.01409912109375,-0.023529052734375
1750,-0.0348358154296875,0.0137786865234375,-0.02032470703125
1751,-0.0359344482421875,0.0135955810546875,-0.01116943359375
1752,-0.0395965576171875,0.0142364501953125,-0.0025634765625
1753,-0.0494842529296875,0.0124053955078125,0.0006866455078125
1754,-0.0607452392578125,0.0111236572265625,0.0076446533203125
1755,-0.0625762939453125,0.0092010498046875,0.0280609130859375
1756,-0.06170654296874999,0.0076446533203125,0.05877685546875
1757,-0.0581817626953125,0.007598876953125,0.0944366455078125
1758,-0.0569000244140625,0.0097503662109375,0.12469482421875001
1759,-0.0602874755859375,0.0080108642578125,0.14959716796875
1760,-0.0566253662109375,0.006866455078125,0.1787567138671875
1761,-0.0533294677734375,0.0078277587890625,0.2028350830078125
1762,-0.0477447509765625,0.0087890625,0.2093353271484375
1763,-0.0399627685546875,0.0084686279296875,0.1885528564453125
1764,-0.036529541015625,0.0058135986328125,0.1613616943359375
1765,-0.03057861328125,0.0060882568359375,0.15362548828125
1766,-0.013092041015625,0.00897216796875,0.1652069091796875
1767,0.0134124755859375,0.01226806640625,0.1815948486328125
1768,0.0487518310546875,0.0145111083984375,0.2002716064453125
1769,0.0935211181640625,0.01611328125,0.219635009765625
1770,0.1313323974609375,0.01611328125,0.2471466064453125
1771,0.1686859130859375,0.0161590576171875,0.3036346435546875
1772,0.2032928466796875,0.01593017578125,0.394683837890625
1773,0.22540283203125,0.0160675048828125,0.5209808349609375
1774,0.2306671142578125,0.015335083007812498,0.649566650390625
1775,0.2231597900390625,0.0134124755859375,0.701934814453125
1776,0.2206878662109375,0.0116729736328125,0.6739654541015625
1777,0.2161102294921875,0.0094757080078125,0.6294708251953125
1778,0.2126312255859375,0.0114898681640625,0.5847930908203125
1779,0.21917724609375,0.011810302734375,0.5534820556640625
1780,0.24961853027343753,0.0110321044921875,0.5495452880859375
1781,0.2870635986328125,0.0104827880859375,0.59710693359375
1782,0.32904052734375,0.0091094970703125,0.66522216796875
1783,0.3988494873046875,0.0087432861328125,0.7153472900390625
1784,0.48847961425781244,0.0077362060546875,0.7310028076171875
1785,0.5135650634765625,0.006866455078125,0.7030792236328125
1786,0.4213714599609375,0.00823974609375,0.6394500732421875
1787,0.2956695556640625,0.0083770751953125,0.5649261474609375
1788,0.1915740966796875,0.0073699951171875,0.49786376953125
1789,0.112518310546875,0.0082855224609375,0.444488525390625
1790,0.0728302001953125,0.0113067626953125,0.40191650390625
1791,0.0861053466796875,0.0113983154296875,0.3732147216796875
1792,0.1391143798828125,0.0100250244140625,0.3435516357421875
1793,0.1996307373046875,0.0097503662109375,0.3030853271484375
1794,0.2553863525390625,0.00933837890625,0.24943542480468753
1795,0.284271240234375,0.0094757080078125,0.190155029296875
1796,0.2918243408203125,0.0110321044921875,0.1331634521484375
1797,0.28839111328125,0.01116943359375,0.0836334228515625
1798,0.277496337890625,0.0115814208984375,0.0378570556640625
1799,0.26531982421875,0.0108489990234375,-0.0025634765625
1800,0.27374267578125,0.0096588134765625,-0.03570556640625
1801,0.2906341552734375,0.0092010498046875,-0.0648651123046875
1802,0.2921905517578125,0.00897216796875,-0.0904998779296875
1803,0.273651123046875,0.0089263916015625,-0.1099090576171875
1804,0.2413787841796875,0.00933837890625,-0.125335693359375
1805,0.19866943359375,0.0110321044921875,-0.1374664306640625
1806,0.1454315185546875,0.011077880859375,-0.1483612060546875
1807,0.08074951171875,0.0103912353515625,-0.1579742431640625
1808,0.01519775390625,0.0097503662109375,-0.16680908203125
1809,-0.0412445068359375,0.00787353515625,-0.1744537353515625
1810,-0.07598876953125,0.0046234130859375,-0.1769256591796875
1811,-0.0943450927734375,0.0046234130859375,-0.1787109375
1812,-0.098236083984375,0.0021514892578125,-0.180999755859375
1813,-0.0948028564453125,0.0010528564453125,-0.1827392578125
1814,-0.098602294921875,0.00311279296875,-0.1844329833984375
1815,-0.1036376953125,0.001922607421875,-0.186309814453125
1816,-0.109222412109375,0.0025177001953125,-0.1891021728515625
1817,-0.1169586181640625,0.003387451171875,-0.1909332275390625
1818,-0.1236419677734375,0.0045318603515625,-0.1942291259765625
1819,-0.1293182373046875,0.0046234130859375,-0.1971588134765625
1820,-0.1347198486328125,0.00421142578125,-0.199859619140625
1821,-0.1400299072265625,0.0031585693359375,-0.2019195556640625
1822,-0.14410400390625,0.0016937255859375,-0.2039337158203125
1823,-0.1466217041015625,0.002105712890625,-0.2047576904296875
1824,-0.15106201171875,0.00164794921875,-0.2048492431640625
1825,-0.15435791015625,0.0025177001953125,-0.20599365234375
1826,-0.1512908935546875,0.0047149658203125,-0.2073211669921875
1827,-0.147491455078125,0.0053558349609375,-0.2075042724609375
1828,-0.1438751220703125,0.0073699951171875,-0.2076873779296875
1829,-0.1389312744140625,0.010711669921875,-0.2077789306640625
1830,-0.1316070556640625,0.0104827880859375,-0.2065887451171875
1831,-0.126068115234375,0.0078277587890625,-0.2075042724609375
1832,-0.12419128417968749,0.00531005859375,-0.207366943359375
1833,-0.1230010986328125,0.003753662109375,-0.2044830322265625
1834,-0.1208038330078125,0.0038909912109375,-0.20269775390625
1835,-0.1173248291015625,0.0032958984375,-0.2010040283203125
1836,-0.1127471923828125,0.0032501220703125,-0.2014617919921875
1837,-0.1117401123046875,0.0024261474609375,-0.202423095703125
1838,-0.1114654541015625,0.0016937255859375,-0.204071044921875
1839,-0.1117401123046875,-0.0001373291015625,-0.2034759521484375
1840,-0.115447998046875,-0.0006866455078125,-0.203155517578125
1841,-0.1216278076171875,-0.0008697509765625,-0.2013702392578125
1842,-0.1294097900390625,-0.0005950927734375,-0.19903564453125
1843,-0.1308746337890625,-0.0003204345703125,-0.1968841552734375
1844,-0.1281280517578125,0.0022430419921875,-0.19537353515625
1845,-0.1261138916015625,0.0042572021484375,-0.195465087890625
1846,-0.1269378662109375,0.0040740966796875,-0.1956024169921875
1847,-0.1322021484375,0.005035400390625,-0.1956024169921875
1848,-0.1383819580078125,0.0056304931640625,-0.1943206787109375
1849,-0.1451568603515625,0.00457763671875,-0.1915740966796875
1850,-0.1487274169921875,0.0043487548828125,-0.1907501220703125
1851,-0.150970458984375,0.0038909912109375,-0.189971923828125
1852,-0.1555938720703125,0.00238037109375,-0.1896514892578125
1853,-0.158294677734375,0.0022430419921875,-0.18804931640625
1854,-0.15838623046875,0.0032501220703125,-0.1865386962890625
1855,-0.1570587158203125,0.00274658203125,-0.1874542236328125
1856,-0.1520233154296875,0.0012359619140625,-0.185211181640625
1857,-0.1479034423828125,-0.0004119873046875,-0.1832427978515625
1858,-0.1422271728515625,-0.0025177001953125,-0.1814117431640625
1859,-0.13311767578125,-0.0036163330078125,-0.1802215576171875
1860,-0.1230010986328125,-0.003662109375,-0.180084228515625
1861,-0.1149444580078125,-0.0029754638671875,-0.1776580810546875
1862,-0.1067047119140625,-0.0005035400390625,-0.1761932373046875
1863,-0.101806640625,0.0003204345703125,-0.1761932373046875
1864,-0.1018524169921875,0.00018310546875,-0.1769256591796875
1865,-0.107208251953125,-0.001007080078125,-0.1764678955078125
1866,-0.1094512939453125,-0.0009613037109375,-0.1769256591796875
1867,-0.1087188720703125,0.0,-0.1755523681640625
1868,-0.1041412353515625,0.0021514892578125,-0.17706298828125
1869,-0.0981903076171875,0.003021240234375,-0.1784820556640625
1870,-0.09173583984375,0.0005950927734375,-0.17926025390625
1871,-0.08624267578125,-0.0005950927734375,-0.1798553466796875
1872,-0.08349609375,-0.0037078857421875,-0.1809539794921875
1873,-0.0798797607421875,-0.0048065185546875,-0.1805877685546875
1874,-0.07452392578125,-0.0056304931640625,-0.1775665283203125
1875,-0.0714569091796875,-0.0039825439453125,-0.1759185791015625
1876,-0.0697174072265625,-0.0037994384765625,-0.1761932373046875
1877,-0.068389892578125,-0.0051727294921875,-0.17633056640625
1878,-0.0693511962890625,-0.00457763671875,-0.1777496337890625
1879,-0.07086181640625,-0.0040283203125,-0.17742919921875
1880,-0.0743865966796875,-0.0039825439453125,-0.176971435546875
1881,-0.0769500732421875,-0.0017852783203125,-0.1764678955078125
1882,-0.0817108154296875,-4.57763671875e-05,-0.1762847900390625
1883,-0.0850982666015625,-0.0017852783203125,-0.1780242919921875
1884,-0.0867919921875,-0.0026092529296875,-0.1781158447265625
1885,-0.0892181396484375,-0.001739501953125,-0.1777496337890625
1886,-0.0905914306640625,-0.0018768310546875,-0.1777496337890625
1887,-0.088897705078125,-0.00274658203125,-0.1773834228515625
1888,-0.0838165283203125,-0.001007080078125,-0.1772918701171875
1889,-0.0768585205078125,0.0009613037109375,-0.1776580810546875
1890,-0.0700836181640625,0.0022430419921875,-0.1780242919921875
1891,-0.065460205078125,0.0031585693359375,-0.1769256591796875
1892,-0.06317138671875,0.0029754638671875,-0.177703857421875
1893,-0.06134033203124999,0.0027923583984375,-0.17816162109375
1894,-0.0607452392578125,0.00164794921875,-0.179901123046875
1895,-0.0600128173828125,0.0027008056640625,-0.1815948486328125
1896,-0.060333251953125,0.00091552734375,-0.182464599609375
1897,-0.0662384033203125,0.00128173828125,-0.18438720703125
1898,-0.0708160400390625,0.0016937255859375,-0.1853485107421875
1899,-0.0743865966796875,0.002838134765625,-0.18731689453125
1900,-0.0757598876953125,0.0016021728515625,-0.1907958984375
1901,-0.0787811279296875,0.0011444091796875,-0.193267822265625
1902,-0.0850067138671875,0.0005035400390625,-0.1957855224609375
1903,-0.0964508056640625,0.0007781982421875,-0.1984405517578125
1904,-0.1028594970703125,0.0003204345703125,-0.200592041015625
1905,-0.10198974609375,-0.00164794921875,-0.2036590576171875
1906,-0.09906005859375,-0.0044403076171875,-0.2061309814453125
1907,-0.0975494384765625,-0.0058135986328125,-0.2084197998046875
1908,-0.0985565185546875,-0.0075531005859375,-0.21148681640625
1909,-0.099884033203125,-0.0077362060546875,-0.21441650390625
1910,-0.0997467041015625,-0.00604248046875,-0.2173919677734375
1911,-0.1002044677734375,-0.0030670166015625,-0.2193145751953125
1912,-0.0997467041015625,-0.00054931640625,-0.2200469970703125
1913,-0.1008453369140625,0.0006866455078125,-0.2208709716796875
1914,-0.1052398681640625,0.00054931640625,-0.2224273681640625
1915,-0.1104583740234375,-0.00128173828125,-0.22393798828125
1916,-0.114166259765625,-0.0018768310546875,-0.225128173828125
1917,-0.1155853271484375,-0.0016021728515625,-0.2275543212890625
1918,-0.1180572509765625,-0.000457763671875,-0.2299346923828125
1919,-0.1217193603515625,0.0017852783203125,-0.2315826416015625
1920,-0.1271209716796875,0.0027923583984375,-0.2330474853515625
1921,-0.13165283203125,0.0054473876953125,-0.232452392578125
1922,-0.1375579833984375,0.00604248046875,-0.232818603515625
1923,-0.1393890380859375,0.0120391845703125,-0.2326812744140625
1924,-0.13970947265625,0.01812744140625,-0.2313995361328125
1925,-0.1401214599609375,0.0159759521484375,-0.2318572998046875
1926,-0.1405792236328125,0.0123138427734375,-0.229339599609375
1927,-0.1414031982421875,0.00897216796875,-0.2286529541015625
1928,-0.1415863037109375,0.0061798095703125,-0.2292022705078125
1929,-0.1415863037109375,0.0102081298828125,-0.2301177978515625
1930,-0.1396636962890625,0.0173492431640625,-0.2310333251953125
1931,-0.1368255615234375,0.0234375,-0.22943115234375
1932,-0.1326141357421875,0.0276947021484375,-0.2268218994140625
1933,-0.12908935546875,0.03240966796875,-0.2251739501953125
1934,-0.1268463134765625,0.0383148193359375,-0.225494384765625
1935,-0.1269378662109375,0.0474700927734375,-0.2253570556640625
1936,-0.1274871826171875,0.0540618896484375,-0.2236175537109375
1937,-0.1277618408203125,0.0558929443359375,-0.22210693359375
1938,-0.1271209716796875,0.0625762939453125,-0.2172088623046875
1939,-0.1259307861328125,0.06976318359375,-0.2124481201171875
1940,-0.1242828369140625,0.0745697021484375,-0.2083282470703125
1941,-0.1208038330078125,0.0760345458984375,-0.2036590576171875
1942,-0.116546630859375,0.0714569091796875,-0.1986236572265625
1943,-0.1110992431640625,0.06646728515625,-0.1919403076171875
1944,-0.1089019775390625,0.0647735595703125,-0.1851654052734375
1945,-0.1079864501953125,0.06298828125,-0.17816162109375
1946,-0.1080780029296875,0.0600128173828125,-0.169281005859375
1947,-0.1069793701171875,0.0537872314453125,-0.1598052978515625
1948,-0.1026763916015625,0.0464630126953125,-0.1524810791015625
1949,-0.09942626953125,0.0360260009765625,-0.144561767578125
1950,-0.0978240966796875,0.0243988037109375,-0.1359100341796875
1951,-0.0937957763671875,0.013824462890625,-0.1270751953125
1952,-0.090911865234375,0.0080108642578125,-0.11572265625
1953,-0.0843658447265625,0.0041656494140625,-0.10748291015625
1954,-0.0770416259765625,-0.0008697509765625,-0.0991973876953125
1955,-0.070220947265625,0.0007781982421875,-0.092193603515625
1956,-0.0630340576171875,0.00274658203125,-0.0831756591796875
1957,-0.0582275390625,0.004119873046875,-0.0725555419921875
1958,-0.051727294921875,0.0035247802734375,-0.061431884765625
1959,-0.047698974609375,0.0015106201171875,-0.05181884765625
1960,-0.0434417724609375,0.003021240234375,-0.0428924560546875
1961,-0.03900146484375,0.0069122314453125,-0.0330963134765625
1962,-0.03204345703125,0.0096588134765625,-0.02288818359375
1963,-0.024627685546875,0.0090179443359375,-0.0157928466796875
1964,-0.0216522216796875,0.00567626953125,-0.0081939697265625
