TimeStamp,ECG Data,GSR Data,PPG_Red Data,PPG_IR Data
161698,496,53,142047,117891
161701,496,53,142050,117901
161703,496,53,142049,117899
161696,495,53,142036,117894
161698,496,53,142047,117891
161701,496,53,142050,117901
161703,496,53,142049,117899
6,494,48,0,0
8,495,48,57551,57546
11,495,48,73880,73896
13,494,48,90318,90339
15,494,49,106706,106706
18,494,49,123067,117881
20,495,49,139454,117884
23,495,49,142047,117884
25,496,49,142047,117879
28,496,50,142045,117879
30,496,50,142044,117886
33,496,50,142055,117881
35,496,50,142049,117881
37,497,51,142054,117879
40,497,51,142050,117876
43,497,51,142060,117879
46,497,51,142053,117882
48,498,51,142054,117881
51,498,51,142050,117873
53,498,51,142064,117878
55,498,52,142067,117880
58,499,52,142051,117879
60,499,52,142058,117877
63,499,52,142066,117886
65,499,52,142063,117878
68,499,52,142071,117880
70,500,52,142070,117882
73,500,52,142063,117881
75,500,53,142074,117887
77,500,52,142072,117887
80,501,53,142072,117890
82,502,53,142077,117894
86,502,53,142087,117899
88,503,53,142086,117897
91,503,53,142092,117894
93,504,53,142088,117900
95,504,54,142093,117908
98,504,54,142094,117895
100,504,54,142103,117908
103,505,54,142112,117898
105,505,54,142108,117889
108,506,54,142100,117908
110,506,54,142103,117900
113,506,54,142110,117899
115,507,54,142101,117900
117,507,54,142103,117906
120,508,54,142110,117897
122,508,54,142115,117906
125,509,54,142102,117907
128,509,55,142101,117900
131,509,55,142099,117895
133,510,55,142093,117897
135,510,55,142088,117901
138,510,55,142070,117896
140,511,55,142071,117904
143,512,55,142051,117887
145,513,55,142039,117889
148,513,55,142028,117878
150,513,55,142017,117872
153,514,55,141997,117880
155,515,55,141971,117865
157,516,55,141953,117861
160,516,55,141920,117848
162,516,55,141894,117839
165,517,55,141866,117823
167,519,55,141827,117814
171,519,55,141794,117805
173,520,55,141739,117789
175,521,55,141700,117777
178,523,56,141656,117761
180,524,56,141597,117746
183,524,56,141547,117733
185,525,56,141494,117704
188,527,56,141443,117700
190,528,56,141405,117675
193,529,56,141334,117660
195,532,56,141280,117649
197,533,56,141224,117628
200,534,56,141183,117620
202,536,56,141138,117598
205,538,56,141096,117592
207,540,56,141058,117581
210,541,56,141010,117565
212,543,56,140975,117551
215,545,56,140939,117523
218,547,56,140894,117534
220,548,56,140867,117518
223,549,56,140834,117509
225,551,56,140793,117504
228,552,56,140767,117496
230,554,56,140738,117487
233,555,56,140714,117477
235,555,57,140679,117476
237,556,56,140660,117462
240,556,57,140641,117455
242,556,56,140621,117455
245,555,56,140621,117446
247,555,56,140583,117439
250,554,57,140557,117439
252,551,57,140552,117435
254,549,57,140538,117427
258,546,57,140520,117426
260,544,57,140517,117431
263,541,57,140512,117426
265,537,57,140502,117429
268,534,57,140502,117419
270,529,57,140484,117413
273,526,57,140482,117413
275,518,57,140480,117422
277,515,57,140475,117411
280,509,57,140470,117413
282,506,57,140470,117415
285,501,57,140468,117411
287,498,57,140453,117411
290,495,57,140467,117415
292,489,57,140456,117411
294,486,57,140456,117419
297,482,57,140458,117418
300,480,57,140468,117418
303,475,57,140465,117417
305,473,57,140465,117410
308,470,57,140462,117414
310,469,57,140458,117414
313,468,57,140467,117425
315,466,57,140458,117405
317,465,57,140458,117404
320,464,57,140452,117405
322,464,57,140456,117405
325,464,57,140455,117403
327,463,57,140455,117396
330,463,57,140447,117397
332,463,57,140434,117397
334,464,57,140438,117398
337,464,57,140438,117381
339,464,57,140438,117384
343,465,57,140411,117374
345,465,57,140407,117374
348,465,57,140404,117372
350,467,57,140404,117362
353,468,57,140387,117355
355,468,57,140373,117355
357,469,57,140375,117349
360,471,57,140352,117350
362,473,57,140341,117350
365,477,57,140328,117342
367,479,57,140328,117332
370,481,57,140322,117333
372,483,57,140303,117323
374,484,57,140303,117317
377,486,57,140280,117317
379,487,57,140280,117317
382,488,57,140264,117311
385,491,57,140264,117320
388,492,57,140249,117320
390,494,57,140249,117310
393,496,57,140249,117311
395,497,57,140223,117311
397,498,57,140235,117313
400,500,57,140212,117304
402,500,57,140215,117304
405,502,57,140215,117299
407,503,57,140213,117302
410,503,57,140198,117302
412,502,57,140198,117304
414,501,57,140183,117300
417,500,57,140186,117308
419,500,57,140186,117304
422,499,57,140192,117304
424,497,58,140154,117306
428,494,57,140154,117309
430,493,57,140152,117302
433,492,57,140179,117302
435,491,57,140189,117304
437,490,57,140187,117301
440,489,57,140187,117301
442,489,57,140187,117300
445,489,57,140190,117300
447,489,57,140192,117298
450,489,57,140192,117301
452,489,57,140199,117301
454,490,57,140199,117302
457,490,57,140202,117302
459,491,57,140212,117302
462,491,57,140223,117302
464,491,57,140224,117303
467,491,57,140224,117316
470,492,57,140237,117310
473,492,58,140247,117310
475,493,57,140246,117313
477,493,57,140246,117317
480,494,57,140262,117312
482,494,57,140281,117323
485,495,57,140281,117326
487,496,57,140294,117336
490,497,58,140291,117336
492,497,57,140311,117336
494,497,57,140328,117341
497,498,57,140336,117342
499,498,57,140351,117349
502,498,57,140373,117350
504,498,57,140373,117360
507,498,57,140385,117364
509,498,58,140391,117364
513,499,57,140399,117366
515,499,57,140416,117378
517,499,57,140429,117374
520,500,58,140439,117375
522,501,58,140453,117379
525,501,57,140467,117385
527,501,57,140467,117394
530,501,57,140474,117394
532,502,57,140484,117401
534,503,57,140498,117393
537,502,58,140496,117400
539,503,58,140495,117397
542,503,57,140504,117398
544,503,57,140510,117396
547,504,57,140510,117400
549,504,58,140524,117393
552,504,58,140528,117396
555,505,58,140521,117393
557,505,57,140536,117402
560,505,58,140515,117396
562,505,58,140533,117411
565,504,58,140538,117401
567,505,58,140539,117401
570,505,58,140542,117407
572,505,58,140544,117401
574,506,58,140542,117406
577,506,58,140530,117403
579,506,58,140538,117408
582,506,58,140548,117397
584,506,58,140537,117391
587,506,58,140539,117399
589,506,58,140545,117397
592,506,58,140553,117396
594,507,58,140548,117391
596,507,57,140552,117393
600,507,58,140550,117395
602,507,58,140555,117399
605,507,58,140565,117400
607,508,58,140570,117399
610,508,58,140565,117403
612,508,58,140573,117408
614,508,58,140585,117407
617,508,58,140581,117408
619,508,58,140582,117408
622,508,58,140596,117409
624,508,58,140607,117410
627,508,58,140612,117415
629,508,58,140603,117429
632,508,58,140621,117422
634,509,58,140626,117426
636,509,58,140631,117432
640,509,58,140630,117429
642,509,58,140637,117428
645,509,58,140638,117431
647,509,58,140649,117441
650,509,58,140664,117435
652,509,58,140661,117431
654,509,58,140674,117434
657,509,58,140671,117431
659,509,58,140676,117439
662,509,58,140678,117445
664,509,58,140696,117450
667,509,58,140695,117450
669,510,58,140705,117451
672,510,58,140712,117449
674,510,58,140720,117453
676,510,58,140712,117454
679,510,58,140725,117457
681,510,58,140741,117458
685,511,58,140733,117453
687,511,58,140751,117453
690,511,58,140761,117465
692,511,58,140766,117461
694,511,58,140765,117460
697,511,58,140765,117463
699,512,58,140772,117469
702,512,58,140777,117466
704,512,58,140788,117465
707,513,58,140791,117460
709,513,58,140811,117468
712,513,58,140821,117471
714,513,58,140823,117476
716,513,58,140828,117474
719,513,58,140833,117481
721,513,58,140845,117486
724,513,58,140853,117485
727,514,58,140861,117493
730,514,58,140865,117489
732,514,58,140877,117498
734,514,58,140879,117495
737,514,58,140893,117493
739,514,58,140898,117497
742,514,58,140908,117497
744,514,58,140916,117498
747,514,58,140916,117495
749,514,58,140919,117506
752,514,58,140928,117506
754,514,58,140939,117499
756,514,58,140941,117506
759,514,58,140943,117514
761,514,58,140955,117515
764,514,58,140965,117516
766,514,58,140974,117518
770,514,58,140982,117522
772,515,58,140983,117521
774,515,58,140983,117519
777,515,58,141000,117524
779,515,58,141001,117524
782,515,58,141025,117533
784,515,58,141024,117525
787,515,58,141024,117526
789,515,58,141026,117535
792,515,58,141034,117535
794,515,58,141046,117540
796,515,58,141046,117545
799,515,58,141052,117542
801,515,58,141064,117542
804,515,58,141078,117549
806,514,58,141080,117555
809,514,58,141080,117550
812,514,58,141089,117554
814,514,58,141097,117554
817,514,58,141097,117554
819,514,58,141097,117554
822,514,58,141101,117562
824,515,58,141111,117562
827,515,58,141125,117564
829,514,58,141122,117558
832,514,58,141123,117573
834,514,58,141133,117571
836,515,58,141132,117571
839,515,58,141132,117569
841,515,58,141132,117569
844,514,58,141142,117572
846,515,58,141157,117572
849,514,58,141163,117579
851,515,58,141166,117579
854,514,58,141166,117578
857,515,58,141174,117578
859,515,58,141180,117584
862,514,58,141183,117579
864,514,58,141183,117580
867,514,58,141182,117582
869,514,58,141183,117582
872,514,58,141188,117578
874,513,58,141188,117581
876,513,58,141203,117582
879,513,58,141200,117582
881,513,58,141213,117582
884,513,58,141206,117584
886,514,58,141206,117581
889,514,58,141208,117580
891,514,58,141209,117580
893,513,58,141219,117584
897,513,58,141223,117582
899,513,58,141212,117582
902,513,58,141212,117582
904,513,58,141225,117575
907,513,58,141234,117575
909,513,58,141234,117579
912,513,58,141218,117581
914,513,58,141226,117581
916,513,58,141230,117579
919,513,58,141240,117580
921,513,58,141236,117580
924,513,58,141236,117583
926,513,58,141237,117587
929,513,58,141245,117587
931,513,59,141245,117591
933,513,58,141255,117588
936,513,59,141248,117590
939,513,59,141248,117590
942,513,58,141260,117590
944,512,58,141259,117593
947,512,59,141259,117590
949,512,58,141264,117594
952,512,59,141273,117594
954,512,59,141276,117600
956,512,59,141272,117601
959,512,58,141272,117603
961,512,58,141278,117603
964,512,59,141289,117603
966,512,58,141291,117600
969,512,59,141291,117604
971,512,58,141295,117604
973,512,58,141300,117604
976,512,58,141306,117604
978,512,58,141316,117607
982,512,59,141316,117615
984,512,58,141325,117614
987,512,59,141330,117614
989,512,58,141336,117624
992,513,59,141336,117629
994,512,59,141339,117630
996,512,58,141350,117630
999,512,59,141353,117631
1001,512,59,141352,117636
1004,512,59,141356,117629
1006,512,59,141368,117639
1009,512,58,141374,117634
1011,512,58,141377,117642
1013,512,59,141377,117636
1016,512,59,141381,117639
1018,512,58,141390,117639
1021,512,58,141385,117643
1024,512,58,141400,117647
1027,512,58,141405,117645
1029,512,58,141419,117653
1032,511,59,141405,117651
1034,511,58,141413,117654
1036,511,58,141410,117647
1039,511,59,141429,117654
1041,511,59,141426,117653
1044,511,58,141431,117662
1046,511,58,141441,117662
1049,511,58,141448,117662
1051,511,59,141452,117664
1053,511,58,141459,117667
1056,511,58,141444,117671
1058,511,58,141471,117666
1061,511,58,141471,117670
1063,511,58,141477,117677
1067,511,58,141482,117682
1069,511,58,141485,117675
1072,511,59,141493,117675
1074,512,58,141506,117681
1076,511,59,141515,117689
1079,511,59,141507,117680
1081,511,58,141512,117683
1084,511,59,141516,117685
1086,511,59,141520,117684
1089,510,58,141529,117691
1091,511,59,141530,117689
1093,510,58,141529,117689
1096,511,59,141547,117696
1098,511,59,141552,117695
1101,511,58,141546,117691
1103,511,59,141550,117707
1106,511,59,141552,117700
1108,511,58,141560,117704
1112,511,59,141566,117706
1114,511,59,141575,117715
1116,511,59,141575,117714
1119,511,58,141587,117713
1121,510,59,141594,117716
1124,510,58,141599,117712
1126,510,58,141600,117719
1129,510,58,141599,117722
1131,510,58,141599,117721
1133,510,59,141617,117721
1136,510,59,141601,117719
1138,510,59,141608,117721
1141,509,58,141624,117730
1143,509,59,141631,117734
1146,509,59,141642,117724
1148,510,59,141636,117731
1152,510,59,141637,117731
1154,510,58,141643,117733
1156,510,58,141652,117738
1159,510,59,141659,117736
1161,510,59,141652,117741
1164,510,58,141664,117749
1166,510,59,141673,117758
1169,510,58,141670,117750
1171,510,59,141677,117756
1173,510,59,141681,117752
1176,510,59,141687,117751
1178,510,59,141692,117754
1181,510,59,141699,117753
1183,510,59,141711,117761
1186,510,59,141702,117759
1188,510,59,141712,117763
1191,510,59,141712,117756
1193,510,59,141719,117766
1196,510,59,141719,117765
1199,510,59,141726,117773
1201,511,59,141734,117777
1204,511,59,141738,117767
1206,511,59,141736,117773
1209,511,59,141748,117777
1211,511,59,141754,117776
1213,511,59,141748,117775
1216,510,59,141753,117778
1218,510,59,141760,117782
1221,510,59,141762,117788
1223,510,58,141761,117780
1226,510,59,141762,117782
1228,510,59,141772,117783
1231,510,59,141779,117781
1233,510,59,141773,117774
1235,510,59,141769,117779
1239,510,59,141778,117786
1241,510,59,141783,117777
1244,510,59,141786,117783
1246,511,59,141788,117790
1249,511,59,141793,117790
1251,510,59,141812,117794
1253,510,59,141804,117784
1256,510,59,141808,117785
1258,510,59,141811,117785
1261,510,59,141814,117798
1263,510,59,141812,117791
1266,510,59,141812,117789
1268,510,59,141821,117793
1271,510,59,141822,117793
1273,510,59,141838,117797
1275,510,59,141830,117802
1278,510,59,141838,117800
1281,510,59,141838,117798
1284,510,59,141846,117805
1286,511,59,141837,117801
1289,512,59,141837,117799
1291,513,59,141841,117792
1293,514,59,141849,117792
1296,515,59,141859,117797
1298,515,59,141858,117805
1301,515,59,141856,117804
1303,515,59,141856,117804
1306,516,59,141854,117806
1308,517,59,141859,117801
1311,518,59,141859,117805
1313,518,59,141872,117808
1315,519,59,141875,117808
1318,519,59,141872,117811
1320,518,59,141872,117811
1324,518,59,141881,117808
1326,518,59,141877,117808
1329,517,59,141892,117810
1331,517,59,141884,117809
1333,517,59,141884,117816
1336,517,59,141893,117815
1338,517,59,141894,117815
1341,517,59,141897,117823
1343,515,59,141897,117815
1346,514,59,141901,117825
1348,514,59,141913,117825
1351,513,59,141926,117818
1353,511,59,141916,117822
1355,510,59,141916,117829
1358,508,59,141915,117831
1360,508,59,141920,117831
1363,507,59,141929,117830
1366,507,59,141929,117826
1369,506,59,141928,117833
1371,506,59,141933,117833
1373,506,59,141943,117835
1376,506,59,141941,117829
1543,491,58,142040,117833
1546,491,59,142032,117830
1548,492,59,142046,117838
1551,492,59,142043,117835
1553,493,59,142051,117833
1543,491,58,142040,117833
1546,491,59,142032,117830
1548,492,59,142046,117838
1551,492,59,142043,117835
1553,493,59,142051,117833
1555,493,59,142049,117831
1558,494,59,142039,117832
1560,494,59,142044,117823
1563,495,58,142044,117825
1565,496,59,142042,117819
1568,496,59,142043,117822
1570,496,58,142049,117818
1572,496,58,142041,117825
1575,497,58,142038,117823
1577,497,59,142044,117827
1581,498,58,142042,117821
1583,499,59,142048,117829
1586,499,58,142044,117828
1588,499,59,142059,117829
1591,500,59,142061,117827
1593,501,59,142057,117823
1595,501,58,142055,117822
1598,502,58,142059,117823
1600,502,58,142057,117828
1603,503,59,142060,117826
1605,503,59,142062,117833
1608,503,58,142059,117829
1610,504,59,142063,117823
1612,504,58,142062,117830
1615,505,58,142064,117825
1617,506,58,142072,117820
1620,506,59,142066,117827
1623,506,58,142062,117825
1626,507,58,142066,117826
1628,507,59,142066,117828
1631,508,58,142072,117821
1633,508,59,142061,117821
1635,508,59,142061,117822
1638,508,59,142065,117815
1640,508,59,142074,117820
1643,509,59,142076,117817
1645,510,59,142074,117818
1648,510,58,142071,117819
1650,511,59,142068,117813
1652,511,59,142075,117820
1655,512,58,142058,117811
1657,512,59,142058,117820
1660,512,59,142072,117808
1662,512,58,142063,117813
1666,513,59,142066,117812
1668,513,59,142062,117812
1671,514,59,142056,117809
1673,515,59,142050,117815
1675,515,59,142059,117805
1678,515,59,142048,117808
1680,515,59,142037,117801
1683,516,59,142028,117806
1685,516,59,142015,117797
1688,517,59,141997,117793
1690,517,59,141978,117783
1692,518,59,141951,117788
1695,519,59,141938,117774
1697,519,59,141924,117762
1700,520,59,141900,117758
1702,520,59,141872,117753
1705,521,59,141828,117739
1708,522,59,141797,117725
1711,523,59,141758,117704
1713,524,59,141714,117691
1715,525,59,141660,117674
1718,526,59,141603,117665
1720,527,59,141571,117647
1723,527,59,141504,117635
1725,529,59,141452,117624
1728,530,59,141388,117599
1730,531,59,141341,117572
1732,533,59,141283,117569
1735,534,59,141219,117542
1737,535,59,141172,117534
1740,537,59,141116,117518
1742,538,59,141081,117503
1745,539,59,141027,117492
1747,542,59,140983,117466
1751,543,59,140933,117454
1753,544,59,140887,117448
1755,546,59,140849,117436
1758,547,59,140818,117429
1760,549,59,140761,117412
1763,551,59,140717,117397
1765,552,59,140685,117382
1768,552,59,140685,117379
1770,554,59,140613,117373
1772,555,59,140577,117373
1775,556,59,140562,117351
1777,557,59,140525,117344
1780,557,59,140501,117333
1782,557,59,140465,117328
1785,557,59,140452,117333
1787,556,59,140434,117319
1790,556,59,140434,117316
1793,555,59,140394,117318
1795,554,59,140374,117318
1798,550,59,140360,117306
1800,548,59,140355,117303
1803,545,59,140355,117310
1805,542,59,140325,117305
1808,540,59,140321,117305
1810,533,59,140308,117309
1812,529,59,140308,117294
1815,525,60,140290,117292
1817,521,60,140286,117292
1820,517,60,140277,117290
1822,510,59,140282,117292
1825,507,60,140282,117290
1827,502,60,140269,117292
1830,499,60,140269,117292
1832,492,60,140268,117291
1835,489,59,140268,117290
1838,486,59,140261,117296
1840,484,60,140257,117296
1843,481,59,140268,117292
1845,477,60,140257,117284
1848,476,60,140255,117286
1850,473,59,140255,117286
1852,471,59,140263,117289
1855,469,59,140261,117292
1857,468,60,140261,117284
1860,467,59,140252,117283
1862,467,59,140252,117283
1865,466,59,140260,117295
1867,466,59,140257,117286
1870,465,59,140269,117291
1872,465,59,140261,117291
1874,465,60,140272,117291
1878,466,59,140270,117286
1880,466,59,140270,117295
1883,466,59,140271,117299
1885,466,59,140258,117299
1888,466,59,140258,117300
1890,467,59,140258,117291
1892,468,59,140252,117286
1895,469,59,140256,117286
1897,469,59,140270,117286
1900,470,59,140259,117282
1902,471,59,140259,117283
1905,471,59,140248,117283
1907,473,59,140248,117279
1910,474,59,140242,117281
1912,475,59,140232,117281
1914,475,59,140227,117281
1917,476,59,140232,117271
1920,476,59,140220,117271
1923,478,59,140220,117271
1925,479,59,140212,117267
1928,479,60,140188,117267
1930,480,59,140188,117258
1932,481,59,140194,117258
1935,482,60,140173,117256
1937,482,59,140173,117256
1940,483,60,140166,117256
1942,484,60,140125,117258
1945,485,59,140125,117257
1947,486,59,140122,117250
1950,486,60,140135,117250
1952,487,59,140140,117244
1954,488,60,140134,117249
1957,489,59,140134,117244
1959,490,59,140132,117238
1963,490,59,140134,117238
1965,491,59,140127,117238
1968,492,59,140127,117241
1970,492,59,140119,117241
1972,494,59,140119,117239
1975,494,59,140123,117248
1977,495,59,140120,117248
1980,496,59,140139,117244
1982,496,59,140138,117253
1985,497,59,140138,117250
1987,497,59,140147,117252
1990,498,60,140144,117252
1992,498,60,140155,117248
1994,499,59,140155,117252
1997,499,59,140159,117256
1999,499,59,140171,117265
2002,500,59,140177,117262
2004,500,59,140186,117272
2008,501,59,140194,117272
2010,501,59,140211,117277
2012,501,59,140225,117276
2015,501,59,140230,117275
2017,502,59,140248,117281
2020,502,59,140251,117281
2022,502,59,140251,117291
2025,502,59,140258,117290
2027,503,59,140272,117290
2030,503,60,140283,117293
2032,503,59,140287,117299
2034,503,59,140294,117295
2037,503,59,140306,117291
2039,504,59,140305,117290
2042,504,59,140326,117296
2044,504,59,140326,117296
2048,505,59,140320,117296
2050,505,59,140331,117297
2052,505,59,140351,117300
2055,505,59,140336,117304
2057,505,59,140340,117299
2060,505,59,140347,117298
2062,505,59,140360,117294
2065,505,59,140353,117290
2067,505,59,140346,117296
2070,505,59,140354,117293
2072,505,59,140350,117288
2074,505,59,140356,117283
2077,505,59,140349,117286
2079,505,59,140364,117281
2082,505,59,140364,117279
2084,506,60,140352,117285
2087,506,59,140355,117285
2089,506,59,140357,117277
2092,506,59,140343,117283
2095,506,59,140334,117267
2097,506,59,140336,117275
2100,506,59,140341,117274
2102,506,59,140343,117274
2105,506,59,140346,117277
2107,507,59,140355,117272
2110,507,59,140355,117284
2112,507,59,140374,117279
2114,507,59,140378,117283
2117,508,59,140368,117276
2119,508,59,140365,117280
2122,510,59,140366,117288
2124,511,59,140370,117290
2127,512,59,140376,117290
2129,512,59,140376,117295
2131,512,59,140386,117297
2135,511,59,140399,117299
2137,512,59,140405,117307
2140,513,59,140422,117300
2142,515,59,140416,117307
2145,516,59,140420,117311
2147,517,59,140423,117311
2150,518,59,140431,117319
2152,517,59,140434,117309
2154,516,59,140437,117312
2157,515,59,140458,117319
2159,514,59,140455,117318
2162,514,59,140452,117318
2164,514,59,140455,117321
2167,514,60,140469,117326
2169,514,59,140467,117326
2171,513,59,140482,117332
2174,513,60,140479,117320
2177,512,59,140480,117324
2180,511,59,140488,117325
2182,509,59,140496,117334
2185,508,59,140491,117326
2187,507,59,140500,117321
2190,506,59,140500,117336
2192,505,60,140518,117336
2194,505,59,140524,117337
2197,504,59,140521,117330
2199,504,59,140535,117336
2202,504,59,140530,117338
2204,503,59,140529,117343
2207,503,59,140556,117337
2209,503,59,140542,117342
2211,503,59,140554,117337
2214,503,59,140553,117346
2216,503,59,140560,117342
2220,503,59,140570,117345
2222,503,60,140593,117348
2225,503,59,140586,117352
2227,503,59,140598,117360
2230,503,59,140603,117358
2232,503,59,140617,117359
2234,504,59,140617,117361
2237,504,59,140627,117369
2239,504,59,140638,117369
2242,504,59,140642,117373
2244,504,59,140659,117378
2247,505,59,140667,117382
2249,505,59,140674,117384
2251,505,59,140685,117379
2254,505,59,140684,117392
2256,505,59,140700,117382
2259,505,59,140708,117392
2262,505,59,140708,117393
2265,505,59,140721,117396
2267,505,59,140734,117399
2270,505,59,140737,117384
2272,505,59,140741,117400
2274,506,59,140752,117400
2277,506,59,140765,117407
2279,506,59,140751,117394
2282,506,59,140751,117411
2284,507,59,140784,117411
2287,507,59,140790,117411
2289,507,59,140804,117421
2291,507,59,140804,117416
2294,507,59,140804,117412
2296,506,59,140804,117421
2299,507,59,140816,117419
2301,507,59,140822,117425
2305,507,59,140822,117416
2307,507,59,140835,117422
2310,508,59,140838,117422
2312,508,59,140854,117432
2314,508,59,140855,117430
2317,508,59,140861,117426
2319,508,59,140861,117427
2322,508,59,140867,117438
2324,508,59,140875,117438
2327,509,59,140885,117446
2329,508,59,140889,117432
2331,508,59,140889,117442
2334,508,59,140902,117445
2336,508,59,140911,117445
2339,509,59,140913,117449
2341,508,59,140913,117444
2344,508,59,140913,117442
2347,509,59,140932,117442
2350,509,59,140937,117448
2352,509,59,140932,117445
2354,509,59,140932,117452
2357,508,59,140946,117456
2359,508,59,140943,117456
2362,508,59,140953,117453
2364,508,59,140953,117450
2367,509,59,140951,117452
2369,509,59,140964,117452
2371,508,59,140972,117447
2374,508,59,140958,117446
2376,508,59,140958,117452
2379,508,59,140974,117449
2381,509,59,140973,117449
2384,509,59,140981,117460
2386,509,59,140981,117457
2390,508,59,140987,117459
2392,508,59,140990,117459
2394,508,59,140999,117460
2397,508,59,141001,117461
2399,508,59,141001,117461
2402,508,59,141003,117465
2404,508,59,141003,117466
2407,509,59,141013,117476
2409,509,59,141023,117477
2411,508,59,141023,117476
2414,509,59,141033,117476
2416,508,59,141044,117479
2419,508,59,141049,117477
2421,509,59,141049,117488
2424,509,59,141060,117488
2426,509,59,141060,117488
2429,509,59,141066,117493
2432,509,59,141080,117493
2434,509,59,141093,117502
2437,509,59,141091,117500
2439,509,59,141097,117500
2442,509,59,141097,117507
2444,509,59,141107,117509
2447,509,59,141107,117509
2449,510,59,141107,117518
2451,510,59,141128,117517
2454,510,59,141130,117523
2456,510,59,141130,117523
2459,510,59,141146,117523
2461,509,59,141111,117521
2464,510,59,141111,117519
2466,510,59,141120,117522
2469,510,59,141157,117522
2471,510,59,141169,117523
2473,510,59,141171,117527
2477,511,59,141171,117527
2479,511,59,141161,117533
2482,511,59,141178,117533
2484,511,59,141181,117530
2487,511,59,141181,117526
2489,511,59,141187,117527
2491,512,59,141187,117527
2494,512,59,141203,117534
2496,512,59,141206,117547
2499,511,59,141206,117537
2501,511,59,141221,117541
2504,512,59,141218,117541
2506,512,59,141222,117542
2509,512,59,141222,117552
2511,512,59,141232,117552
2513,512,59,141233,117552
2516,512,59,141246,117561
2519,512,58,141244,117556
2522,512,59,141266,117553
2524,512,58,141276,117567
2527,512,59,141270,117567
2529,512,58,141280,117573
2531,512,58,141280,117574
2534,512,59,141291,117569
2536,512,59,141294,117569
2539,512,59,141303,117584
2541,512,59,141305,117578
2544,512,58,141316,117581
2546,512,59,141312,117585
2549,512,59,141333,117583
2551,512,58,141316,117584
2553,512,59,141327,117578
2556,512,58,141327,117580
2558,512,58,141325,117575
2562,512,58,141330,117580
2564,513,59,141337,117586
2567,512,58,141354,117586
2569,512,58,141349,117586
2571,513,58,141363,117582
2574,513,58,141351,117590
2576,512,58,141359,117589
2579,512,58,141362,117587
2581,512,58,141364,117589
2584,512,58,141358,117589
2586,513,58,141366,117586
2589,512,58,141367,117587
2591,512,58,141387,117591
2593,512,58,141391,117591
2596,512,58,141378,117590
2598,512,58,141392,117587
2601,512,58,141387,117593
2604,512,58,141389,117591
2607,512,58,141381,117598
2609,512,58,141393,117589
2611,512,58,141402,117589
2614,512,58,141407,117595
2616,512,58,141402,117597
2619,512,58,141405,117596
2621,512,58,141417,117605
2624,512,58,141416,117601
2626,512,58,141417,117606
2629,511,58,141430,117598
2631,512,58,141431,117605
2633,512,58,141433,117619
2636,512,58,141433,117603
2638,512,58,141446,117610
2641,512,58,141449,117610
2643,512,58,141455,117617
2647,512,58,141460,117621
2649,512,58,141456,117616
2651,511,58,141473,117621
2654,511,58,141467,117620
2656,511,58,141463,117624
2659,511,58,141468,117606
2661,511,58,141479,117618
2664,512,58,141481,117616
2666,512,58,141479,117613
2669,512,58,141482,117621
2671,512,58,141489,117622
2673,511,58,141491,117623
2676,511,58,141499,117624
2678,511,58,141485,117626
2681,511,58,141497,117622
2683,511,58,141502,117635
2686,511,58,141514,117631
2689,511,58,141523,117635
2691,511,58,141525,117634
2694,511,58,141528,117641
2696,511,58,141531,117642
2699,511,58,141543,117646
2701,511,58,141550,117660
2704,511,58,141557,117662
2706,511,58,141561,117654
2709,511,58,141572,117659
2711,511,58,141571,117656
2713,511,58,141576,117664
2716,511,58,141583,117672
2718,511,58,141598,117681
2721,511,58,141595,117668
2723,511,58,141599,117674
2726,511,58,141614,117674
2728,511,58,141607,117679
2731,511,58,141614,117679
2734,511,58,141622,117689
2736,510,58,141624,117679
2739,510,58,141627,117686
2741,511,58,141628,117686
2744,510,58,141626,117688
2746,511,58,141640,117696
2749,511,58,141651,117696
2751,510,58,141658,117700
2753,510,58,141662,117703
2756,510,58,141662,117703
2758,510,58,141660,117698
2761,510,58,141668,117703
2763,510,58,141671,117710
2766,511,58,141682,117703
2768,511,58,141687,117710
2770,511,58,141697,117711
2774,511,58,141700,117713
2776,510,58,141697,117713
2779,510,58,141697,117723
2781,511,58,141705,117712
2784,511,58,141705,117724
2786,511,58,141708,117725
2789,511,58,141715,117725
2791,511,58,141732,117732
2793,510,58,141729,117725
2796,510,58,141732,117725
2798,510,58,141732,117726
2801,510,58,141741,117736
2803,510,58,141751,117735
2806,510,58,141751,117730
2808,510,58,141762,117735
2810,510,58,141762,117735
2813,509,58,141764,117742
2816,510,58,141769,117743
2819,510,58,141777,117746
2821,510,58,141777,117741
2824,510,58,141782,117747
2826,510,58,141781,117752
2829,510,57,141781,117759
2831,510,57,141795,117756
2833,510,58,141798,117756
2836,510,58,141808,117757
2838,510,58,141808,117759
2841,510,58,141815,117764
2843,510,58,141817,117764
2846,510,58,141821,117759
2848,510,58,141820,117763
2850,510,58,141820,117773
2853,510,58,141830,117780
2855,510,57,141836,117780
2859,509,58,141852,117780
2861,509,57,141852,117779
2864,510,58,141850,117791
2866,510,57,141856,117791
2869,510,58,141867,117788
2871,510,57,141868,117790
2873,510,58,141868,117796
2876,510,57,141877,117790
2878,510,57,141880,117790
2881,510,57,141888,117795
2883,510,58,141884,117800
2886,510,57,141898,117802
2888,510,57,141898,117800
2890,510,57,141897,117803
2893,510,57,141901,117803
2895,509,58,141901,117807
2898,509,58,141911,117809
2900,509,58,141918,117809
2904,509,58,141912,117807
2906,509,58,141912,117810
2909,509,58,141917,117809
2911,510,57,141925,117809
2913,510,58,141940,117812
2916,510,58,141936,117809
2918,510,58,141937,117809
2921,510,57,141937,117821
2923,510,57,141942,117816
2926,510,58,141953,117816
2928,510,57,141953,117830
2930,510,57,141966,117827
2933,510,57,141969,117827
2935,510,57,141952,117833
2938,510,58,141967,117840
2940,510,57,141982,117840
2944,510,57,141982,117843
2946,510,58,141991,117838
2949,510,58,141992,117838
2951,511,58,141992,117846
2953,511,57,142002,117841
2956,511,58,142001,117841
2958,511,58,142007,117850
2961,511,57,142007,117844
2963,511,57,142008,117844
2966,511,57,142008,117849
2968,511,58,141981,117855
2970,511,58,142019,117855
2973,510,57,142019,117851
2975,508,57,142029,117851
2978,507,57,142017,117851
2980,505,58,142030,117853
2983,498,57,142030,117852
2985,496,57,142034,117852
2989,494,57,142034,117861
2991,496,58,142031,117858
2993,499,57,142033,117858
2996,506,57,142046,117859
2998,515,57,142046,117862
3001,534,57,142046,117858
3003,550,58,142055,117864
3006,562,57,142043,117864
3008,576,58,142048,117863
3010,590,57,142048,117861
3013,604,57,142047,117864
3015,636,57,142058,117864
3018,647,58,142060,117863
3020,654,58,142056,117863
3023,650,57,142056,117859
3025,636,58,142065,117866
3028,623,58,142052,117866
3031,607,58,142066,117865
3033,592,57,142055,117870
3036,573,57,142071,117865
3038,536,57,142072,117869
3041,516,58,142075,117863
3043,501,57,142075,117866
3046,490,57,142084,117868
3048,469,57,142082,117866
3050,466,57,142084,117866
3053,465,57,142078,117872
3055,467,57,142084,117873
3058,470,57,142091,117876
3060,479,57,142083,117872
3063,483,57,142094,117871
3065,485,57,142097,117878
3068,486,57,142097,117872
3070,485,57,142102,117872
3073,485,57,142099,117879
3076,485,57,142103,117884
3078,485,57,142105,117875
3081,485,57,142115,117873
3083,487,57,142109,117875
3086,488,57,142118,117878
3088,489,57,142118,117883
3090,491,57,142120,117873
3093,493,57,142117,117871
3095,494,57,142123,117873
3098,495,57,142106,117877
3100,496,57,142120,117868
3103,497,57,142123,117870
3105,500,57,142121,117869
3108,501,57,142123,117865
3110,502,57,142118,117872
3112,502,57,142119,117872
3116,503,57,142117,117870
3118,503,57,142120,117874
3121,503,57,142125,117874
3123,503,57,142129,117879
3126,503,57,142132,117876
3128,504,57,142136,117870
3130,504,57,142136,117877
3133,505,57,142142,117877
3135,504,57,142137,117876
3138,503,57,142143,117884
3140,502,57,142144,117875
3143,501,57,142148,117874
3145,499,57,142151,117878
3148,499,57,142148,117886
3150,498,57,142146,117878
3152,498,57,142153,117875
3155,496,57,142153,117883
3158,496,57,142154,117883
3161,496,57,142154,117880
3163,496,57,142167,117879
3166,496,57,142159,117880
3168,496,57,142159,117874
3170,496,57,142172,117879
3173,496,57,142164,117871
3175,496,57,142167,117869
3178,496,57,142168,117871
3180,497,57,142173,117874
3183,497,57,142168,117874
3185,497,57,142168,117880
3188,497,57,142176,117867
3190,498,57,142167,117878
3192,499,57,142160,117883
3195,499,57,142180,117876
3197,499,57,142178,117873
3201,500,57,142179,117876
3203,501,57,142186,117881
3206,501,57,142181,117884
3208,502,57,142179,117884
3210,502,57,142196,117885
3213,502,57,142192,117892
3215,503,57,142190,117891
3218,503,57,142193,117887
3220,504,57,142195,117890
3223,504,57,142188,117890
3225,505,57,142196,117873
3228,506,57,142201,117900
3230,506,57,142209,117906
3232,507,57,142199,117902
3235,507,57,142198,117896
3237,507,57,142198,117899
3240,508,57,142201,117896
3243,509,57,142195,117895
3246,509,57,142199,117899
3248,510,57,142195,117900
3250,510,57,142192,117894
3253,511,57,142188,117888
3255,511,57,142176,117887
3258,512,57,142167,117879
3260,513,57,142155,117875
3263,513,57,142141,117875
3265,514,57,142128,117862
3268,515,57,142107,117859
3270,516,57,142099,117842
3272,516,57,142070,117838
3275,516,57,142047,117828
3277,517,57,142018,117814
3280,518,57,141993,117806
3282,519,57,141967,117792
3286,520,57,141967,117782
3288,521,57,141896,117769
3290,522,57,141852,117769
3293,523,57,141824,117743
3295,524,57,141775,117724
3298,525,57,141729,117716
3300,527,57,141662,117693
3303,528,57,141626,117684
3305,530,57,141578,117663
3308,531,57,141578,117653
3310,532,57,141464,117631
3312,534,57,141400,117631
3315,536,57,141358,117607
3317,537,57,141306,117585
3320,538,57,141306,117565
3322,540,57,141205,117554
3325,541,57,141152,117554
3328,543,57,141118,117536
3330,544,57,141118,117520
3333,545,57,141039,117520
3335,547,57,141000,117520
3338,548,57,140972,117496
3340,550,57,140938,117485
3343,551,57,140938,117476
3345,552,57,140873,117468
3348,553,57,140849,117468
3350,554,57,140819,117454
3352,554,57,140819,117446
3355,554,57,140767,117444
3357,554,57,140750,117444
3360,553,57,140730,117444
3362,552,57,140711,117430
3365,551,57,140691,117434
3367,548,57,140691,117426
3369,545,57,140675,117421
3373,542,57,140650,117420
3375,539,57,140650,117412
3378,535,57,140633,117414
3380,533,57,140621,117414
3383,530,57,140611,117411
3385,523,57,140611,117413
3388,520,57,140604,117414
3390,514,57,140596,117410
3392,511,57,140586,117410
3395,504,57,140587,117411
3397,501,57,140587,117408
3400,496,57,140593,117408
3402,494,57,140590,117408
3405,490,57,140583,117412
3407,485,57,140583,117409
3409,481,57,140586,117410
3412,479,57,140587,117410
3415,477,57,140597,117416
3418,474,57,140593,117413
3420,471,57,140593,117415
3423,469,57,140602,117417
3425,468,57,140609,117417
3428,467,57,140612,117417
3430,465,57,140612,117414
3432,465,57,140615,117423
3435,464,57,140622,117423
3437,464,57,140618,117424
3440,464,57,140635,117437
3442,464,57,140635,117427
3445,464,57,140646,117431
3447,464,57,140659,117431
3449,464,57,140658,117439
3452,465,57,140658,117442
3454,466,57,140668,117446
3458,466,57,140671,117446
3460,467,57,140685,117440
3463,468,57,140685,117448
3465,468,57,140684,117448
3468,469,57,140694,117452
3470,471,57,140694,117439
3472,472,57,140693,117441
3475,472,57,140702,117441
3477,473,57,140705,117450
3480,474,57,140705,117446
3482,475,57,140706,117445
3485,476,57,140700,117445
3487,477,57,140712,117447
3489,478,57,140705,117455
3492,479,57,140705,117442
3494,480,57,140701,117443
3497,481,57,140709,117443
3500,482,57,140705,117442
3503,483,57,140705,117441
3505,484,57,140695,117433
3508,485,57,140692,117433
3510,485,57,140703,117439
3512,486,57,140703,117441
3515,487,57,140697,117441
3517,487,57,140697,117432
3520,489,57,140691,117439
3522,489,57,140700,117435
3525,490,57,140694,117435
3527,491,57,140700,117437
3529,491,57,140700,117440
3532,492,57,140700,117441
3534,493,57,140701,117436
3537,494,57,140706,117448
3539,494,57,140706,117449
3543,495,57,140707,117443
3545,496,57,140719,117452
3548,496,57,140730,117452
3550,496,57,140734,117454
3552,497,57,140736,117457
3555,497,57,140744,117455
3557,498,57,140758,117462
3560,498,57,140773,117464
3562,498,57,140773,117479
3565,499,57,140777,117479
3567,499,57,140796,117479
3569,499,57,140799,117485
3572,500,57,140811,117490
3574,500,57,140821,117490
3577,500,57,140835,117493
3579,501,57,140846,117496
3582,501,57,140859,117501
3585,501,57,140863,117502
3588,501,57,140867,117507
3590,502,57,140875,117509
3592,502,57,140878,117510
3595,502,57,140884,117507
3597,502,57,140893,117512
3600,503,57,140898,117515
3602,503,57,140905,117508
3605,503,57,140908,117517
3607,503,57,140904,117511
3609,503,57,140911,117515
3612,503,57,140918,117513
3614,503,57,140914,117513
3617,503,57,140921,117516
3619,504,57,140917,117517
3622,504,57,140921,117516
3624,504,57,140929,117512
3628,504,57,140940,117513
3630,504,57,140935,117511
3632,504,57,140939,117513
3635,504,57,140936,117511
3637,504,57,140932,117519
3640,505,57,140932,117512
3642,505,57,140935,117510
3645,505,57,140930,117512
3647,505,57,140943,117515
3649,505,57,140939,117512
3652,505,57,140947,117516
3654,505,57,140953,117518
3657,505,57,140949,117515
3659,505,57,140942,117512
3662,505,57,140935,117516
3664,505,57,140945,117523
3667,506,57,140947,117515
3670,506,57,140949,117517
3672,506,57,140938,117522
3675,506,57,140958,117516
3677,505,57,140956,117518
3680,505,57,140962,117518
3682,506,57,140964,117514
3685,506,57,140961,117520
3687,506,57,140955,117518
3689,506,57,140962,117524
3692,506,57,140956,117513
3694,506,57,140958,117523
3697,506,57,140960,117516
3699,506,57,140959,117515
3702,506,57,140959,117519
3704,506,57,140968,117517
3707,506,57,140954,117518
3709,506,57,140953,117515
3712,506,57,140968,117512
3715,507,57,140964,117513
3717,507,57,140967,117509
3720,507,57,140965,117516
3722,507,57,140969,117511
3725,508,57,140968,117512
3727,508,57,140966,117518
3729,508,57,140966,117518
3732,508,57,140972,117513
3734,508,57,140995,117513
3737,507,57,140982,117508
3739,507,57,140981,117514
3742,507,57,140974,117516
3744,507,57,140985,117518
3747,507,57,140984,117516
3749,507,57,140985,117520
3751,508,57,140994,117512
3755,507,57,140998,117523
3757,508,57,141008,117519
3760,508,57,141013,117519
3762,508,57,141008,117522
3765,508,57,141020,117522
3767,508,57,141022,117520
3769,507,57,141021,117522
3772,507,57,141025,117523
3774,507,57,141028,117528
3777,508,57,141030,117519
3779,508,57,141041,117518
3782,508,57,141041,117520
3784,508,57,141038,117516
3787,508,57,141044,117516
3789,508,57,141050,117514
3791,508,57,141044,117503
3794,508,57,141047,117510
3796,508,57,141050,117508
3800,508,57,141050,117507
3802,508,57,141047,117497
3805,509,57,141047,117498
3807,509,57,141045,117493
3809,509,57,141045,117486
3812,509,57,141037,117483
3814,509,56,141039,117483
3817,509,57,141053,117481
3819,509,57,141041,117471
3822,508,57,141041,117476
3824,509,56,141051,117480
3827,509,56,141048,117480
3829,509,57,141053,117482
3831,509,56,141050,117478
3834,509,57,141046,117479
3836,509,56,141046,117476
3840,509,56,141046,117478
3842,510,57,141048,117471
3845,510,57,141048,117483
3847,510,57,141064,117483
3849,510,57,141070,117483
3852,510,57,141064,117480
3854,509,57,141064,117485
3857,510,57,141074,117486
3859,510,57,141069,117486
3862,509,56,141087,117482
3864,510,57,141088,117485
3867,510,57,141093,117490
3869,510,57,141099,117490
3871,510,57,141099,117490
3874,510,57,141105,117488
3876,510,57,141105,117498
3879,510,57,141108,117499
3881,510,57,141107,117499
3885,510,56,141118,117495
3887,510,57,141120,117498
3889,510,57,141120,117500
3892,510,57,141121,117498
3894,511,57,141127,117498
3897,510,57,141128,117504
3899,510,57,141128,117499
3902,511,57,141133,117502
3904,511,57,141137,117502
3907,510,57,141152,117503
3909,510,57,141138,117501
3911,510,57,141138,117508
3914,510,57,141156,117509
3916,511,57,141155,117509
3919,511,57,141150,117507
3921,511,57,141150,117504
3924,511,57,141157,117510
3927,511,57,141160,117510
3929,511,57,141177,117508
3932,512,57,141168,117513
3934,512,57,141173,117513
3937,512,57,141173,117519
3939,512,57,141182,117519
3942,512,57,141196,117519
3944,512,57,141196,117519
3947,512,57,141199,117519
3949,512,57,141197,117519
3951,512,57,141203,117527
3954,511,57,141207,117525
3956,511,57,141219,117525
3959,512,57,141219,117524
3961,512,57,141223,117533
3964,512,57,141222,117533
3966,512,57,141222,117540
3969,512,57,141234,117531
3972,512,57,141229,117544
3974,512,57,141229,117546
3977,512,57,141251,117546
3979,512,57,141216,117546
3982,512,57,141216,117546
3984,512,57,141230,117551
3987,512,57,141251,117551
3989,512,57,141270,117546
3991,511,57,141276,117556
3994,511,57,141276,117551
3996,511,57,141272,117552
3999,511,57,141283,117552
4001,511,57,141285,117554
4004,511,57,141285,117557
4006,511,57,141289,117557
4008,511,57,141289,117567
4012,511,57,141298,117562
4014,512,57,141301,117562
4017,511,57,141303,117567
4019,511,57,141303,117567
4022,511,57,141303,117566
4024,511,57,141315,117571
4027,511,57,141312,117571
4029,511,57,141309,117568
4031,511,57,141309,117563
4034,511,57,141312,117564
4036,511,57,141314,117568
4039,511,57,141316,117572
4041,511,57,141321,117572
4044,511,57,141317,117572
4046,511,57,141325,117574
4048,511,57,141337,117572
4051,511,57,141330,117570
4054,511,57,141337,117566
4057,511,57,141345,117574
4059,511,57,141345,117576
4062,511,57,141347,117579
4064,511,57,141353,117579
4067,511,57,141350,117576
4069,511,57,141360,117585
4071,511,57,141375,117581
4074,511,57,141383,117587
4076,511,57,141379,117585
4079,510,57,141385,117595
4081,511,57,141385,117584
4084,511,57,141392,117584
4086,511,57,141394,117593
4088,511,57,141415,117599
4091,511,57,141411,117607
4093,511,57,141409,117601
4097,511,57,141416,117601
4099,511,57,141418,117612
4102,511,57,141421,117604
4104,512,57,141431,117605
4107,513,57,141434,117606
4109,515,57,141441,117608
4111,515,57,141465,117606
4114,516,57,141443,117608
4116,515,57,141457,117615
4119,515,57,141464,117620
4121,516,57,141471,117617
4124,517,57,141476,117625
4126,518,57,141469,117623
4128,518,57,141482,117631
4131,519,57,141487,117634
4133,519,57,141487,117630
4136,518,57,141497,117636
4139,518,57,141506,117633
4142,518,57,141506,117634
4144,518,57,141519,117635
4147,518,57,141527,117640
4149,518,57,141521,117642
4151,518,56,141528,117643
4154,518,57,141530,117641
4156,518,57,141532,117640
4159,517,57,141533,117647
4161,516,57,141543,117651
4164,515,56,141548,117648
4166,513,57,141554,117661
4168,512,57,141560,117657
4171,511,57,141565,117659
4173,509,57,141569,117663
4176,508,57,141585,117661
4178,507,57,141593,117668
4182,507,56,141595,117671
4184,506,57,141593,117671
4187,506,57,141602,117669
4189,505,56,141607,117677
4191,505,56,141616,117677
4194,505,57,141624,117682
4196,505,57,141628,117685
4199,505,57,141629,117688
4201,505,57,141632,117686
4204,505,56,141635,117689
4206,504,57,141644,117692
4208,505,57,141653,117691
4211,505,57,141654,117690
4213,505,56,141657,117701
4216,505,56,141661,117691
4218,505,56,141665,117706
4221,505,57,141665,117705
4224,505,56,141680,117700
4227,505,56,141685,117706
4229,505,57,141688,117710
4231,506,56,141689,117714
4234,506,57,141692,117708
4236,506,56,141697,117708
4239,506,56,141699,117715
4241,506,56,141705,117713
4244,506,56,141711,117718
4246,506,56,141704,117723
4248,506,56,141724,117714
4251,506,56,141725,117720
4253,506,56,141721,117721
4256,507,56,141733,117730
4258,507,56,141741,117726
4261,507,56,141740,117726
4263,507,56,141749,117731
4267,506,56,141754,117735
4269,507,56,141756,117741
4271,507,56,141765,117735
4274,507,56,141769,117730
4276,507,56,141766,117742
4279,507,56,141777,117744
4281,507,56,141780,117739
4284,507,56,141783,117745
4286,507,56,141792,117749
4288,507,56,141794,117739
4291,507,56,141795,117755
4293,508,56,141806,117741
4296,508,56,141805,117747
4298,508,56,141800,117746
4301,508,56,141806,117748
4303,509,56,141823,117746
4306,508,56,141823,117749
4308,508,56,141822,117751
4311,508,56,141823,117751
4314,508,56,141825,117758
4316,508,56,141829,117746
4319,508,56,141829,117756
4321,509,56,141841,117750
4324,509,56,141842,117750
4326,509,56,141852,117757
4328,509,56,141853,117757
4331,509,56,141852,117761
4333,509,56,141852,117761
4336,509,56,141860,117763
4338,509,56,141860,117768
4341,509,56,141860,117759
4343,509,56,141866,117765
4346,509,56,141872,117765
4348,509,56,141883,117780
4350,509,56,141880,117776
4354,509,56,141889,117777
4356,509,56,141889,117776
4359,509,56,141892,117783
4361,509,56,141899,117783
4364,508,56,141905,117785
4366,508,56,141914,117787
4368,508,56,141914,117785
4371,508,56,141918,117786
4373,508,56,141920,117786
4376,508,56,141918,117788
4378,508,56,141918,117801
4381,508,56,141925,117801
4383,508,56,141934,117801
4386,508,56,141949,117806
4388,508,56,141948,117799
4390,508,56,141948,117802
4393,508,56,141945,117802
4396,509,56,141949,117802
4399,508,56,141956,117806
4401,508,56,141956,117803
4404,508,56,141958,117809
4406,509,56,141965,117809
4408,508,56,141976,117811
4411,509,56,141964,117811
4413,509,56,141964,117812
4416,509,56,141965,117812
4418,509,56,141979,117812
4421,509,56,141979,117813
4423,509,56,141979,117812
4426,509,56,141983,117815
4428,509,56,141988,117815
4430,509,56,141992,117824
4433,509,56,141993,117811
4435,509,56,141990,117811
4439,510,56,141987,117814
4441,510,56,141987,117818
4444,510,56,142001,117822
4446,510,56,142003,117831
4448,509,56,142003,117823
4451,510,56,142009,117823
4453,510,56,142021,117828
4456,510,56,142028,117826
4458,510,56,142028,117828
4461,510,56,142012,117828
4463,510,56,142012,117824
4466,510,56,142027,117827
4468,510,56,142027,117827
4470,510,56,142032,117826
4473,510,56,142034,117826
4475,510,56,142033,117826
4478,510,56,142033,117827
4481,510,56,142044,117829
4484,511,56,142006,117829
4486,511,56,142007,117831
4488,511,56,142046,117833
4491,511,56,142046,117832
4493,511,56,142048,117832
4496,511,56,142042,117832
4498,511,56,142059,117834
4501,511,56,142059,117839
4503,511,56,142055,117842
4506,511,56,142053,117842
4508,511,56,142069,117836
4510,509,56,142069,117844
4513,508,56,142066,117844
4515,505,56,142071,117848
4518,498,56,142071,117858
4520,495,56,142084,117845
4524,494,56,142085,117845
4526,494,56,142085,117859
4528,497,56,142088,117859
4531,503,56,142094,117852
4533,509,56,142094,117854
4536,530,56,142094,117863
4538,545,56,142106,117865
4541,557,56,142096,117865
4543,569,56,142107,117865
4546,584,56,142107,117872
4548,616,56,142110,117868
4550,629,56,142111,117868
4553,642,56,142108,117871
4555,650,56,142112,117881
4558,652,56,142121,117872
4560,640,56,142128,117872
4563,626,56,142123,117871
4566,610,56,142125,117870
4568,596,56,142125,117871
4571,581,56,142127,117871
4573,545,56,142128,117871
4576,525,56,142134,117877
4578,506,56,142138,117880
4581,493,56,142140,117875
4583,475,56,142144,117876
4586,470,56,142166,117879
4588,467,56,142154,117883
4590,468,56,142150,117878
4593,471,56,142155,117874
4595,478,56,142142,117876
4598,482,56,142145,117870
4600,485,56,142152,117868
4603,486,56,142155,117868
4605,487,56,142154,117866
4608,487,56,142155,117880
4611,486,56,142159,117880
4613,486,56,142154,117873
4616,486,56,142153,117871
4618,487,56,142151,117869
4621,487,56,142152,117873
4623,487,56,142155,117867
4626,487,56,142164,117862
4628,488,56,142166,117871
4630,488,56,142170,117872
4633,489,56,142156,117868
4635,489,56,142164,117878
4638,489,56,142173,117878
4640,490,56,142177,117875
4643,491,56,142176,117890
4645,491,56,142175,117882
4647,491,56,142175,117884
4651,492,56,142176,117883
4653,493,56,142179,117881
4656,494,56,142183,117882
4658,495,56,142197,117877
4661,495,56,142189,117883
4663,495,56,142191,117879
4666,496,56,142191,117875
4668,497,56,142189,117883
4670,497,56,142193,117882
4673,497,56,142196,117876
4675,498,56,142197,117884
4678,498,56,142205,117876
4680,499,56,142204,117877
4683,499,56,142194,117880
4685,500,56,142188,117879
4687,500,56,142204,117872
4690,501,56,142201,117884
4692,501,56,142198,117882
4696,501,56,142211,117879
4698,502,56,142213,117881
4701,502,56,142208,117876
4703,502,56,142203,117884
4706,502,56,142208,117881
4708,503,56,142219,117886
4710,503,56,142221,117891
4713,503,56,142211,117882
4715,503,56,142220,117885
4718,504,55,142214,117887
4720,504,56,142216,117892
4723,504,56,142225,117880
4725,505,56,142234,117889
4727,505,56,142224,117878
4730,505,56,142227,117890
4732,506,56,142231,117890
4736,506,56,142229,117889
4738,506,56,142229,117894
4741,506,56,142225,117886
4743,507,56,142233,117887
4746,507,56,142241,117882
4748,508,56,142239,117887
4750,508,56,142229,117893
4753,509,56,142241,117891
4755,509,56,142246,117900
4758,509,56,142235,117893
4760,510,55,142238,117886
4763,510,55,142247,117891
4765,511,55,142244,117889
4767,511,56,142238,117891
4770,512,55,142241,117887
4772,512,55,142232,117889
4775,512,56,142233,117895
4777,513,55,142227,117889
4781,513,56,142228,117880
4783,513,55,142211,117883
4786,514,55,142212,117881
4788,514,55,142204,117875
4790,514,55,142194,117871
4793,515,55,142184,117876
4795,516,55,142168,117873
4798,516,56,142155,117863
4800,516,55,142134,117854
4803,517,55,142113,117851
4805,518,55,142095,117848
4807,519,55,142073,117831
4810,519,56,142056,117828
4812,520,55,142017,117814
4815,521,56,141984,117800
4817,522,55,141954,117789
4820,522,55,141954,117785
4823,523,55,141864,117772
4826,524,55,141837,117772
4828,525,55,141796,117741
4830,526,56,141739,117723
4833,528,55,141679,117704
4835,529,56,141679,117698
4838,530,56,141592,117675
4840,532,55,141536,117655
4843,533,55,141536,117640
4845,534,55,141441,117620
4847,536,55,141382,117620
4850,538,56,141343,117596
4852,539,55,141296,117575
4855,541,55,141246,117560
4857,542,56,141246,117548
4860,543,55,141156,117529
4862,545,56,141114,117520
4866,545,55,141114,117517
4868,547,56,141052,117499
4870,548,55,141007,117499
4873,550,56,140980,117481
4875,551,56,140980,117475
4878,552,56,140951,117463
4880,553,56,140887,117463
4883,554,56,140870,117452
4885,555,56,140836,117438
4887,555,56,140836,117432
4890,555,56,140784,117425
4892,555,56,140751,117425
4895,554,56,140735,117407
4897,552,56,140735,117398
4900,551,56,140716,117393
4902,550,56,140668,117393
4905,548,56,140657,117394
4908,543,55,140642,117374
4910,541,55,140642,117368
4913,537,56,140602,117360
4915,535,56,140581,117360
4918,532,56,140575,117362
4920,525,56,140561,117342
4923,522,56,140546,117336
4925,516,56,140546,117336
4927,511,56,140540,117333
4930,505,56,140519,117326
4932,502,55,140519,117328
4935,498,56,140511,117328
4937,495,56,140501,117328
4940,492,56,140504,117332
4942,486,56,140504,117340
4945,482,56,140503,117333
4947,480,55,140493,117333
4950,478,56,140501,117327
4953,474,56,140500,117332
4955,472,56,140499,117332
4958,469,56,140499,117339
4960,467,55,140509,117330
4963,466,56,140501,117330
4965,464,55,140501,117335
4967,464,55,140510,117341
4970,464,55,140511,117341
4972,463,55,140490,117336
4975,463,55,140521,117343
4977,463,55,140519,117343
4980,464,55,140519,117350
4982,465,55,140528,117345
4985,466,55,140524,117345
4987,467,55,140524,117359
4989,468,55,140532,117351
4993,469,55,140534,117351
4995,470,55,140542,117360
4998,473,55,140542,117364
5000,474,55,140546,117364
5003,477,55,140546,117358
5005,478,55,140510,117360
5007,478,55,140542,117360
5010,480,55,140542,117370
5012,481,55,140556,117362
5015,482,55,140535,117362
5017,483,55,140536,117367
5020,486,55,140536,117360
5022,488,55,140528,117360
5025,492,55,140528,117364
5027,494,55,140518,117361
5029,495,55,140530,117361
5032,495,55,140527,117367
5035,493,55,140522,117365
5038,490,55,140522,117365
5040,488,55,140523,117362
5043,487,55,140505,117362
5045,485,55,140501,117347
5047,485,55,140501,117349
5050,484,55,140497,117351
5052,484,55,140497,117351
5055,484,55,140493,117349
5057,484,55,140487,117349
5060,484,55,140487,117351
5062,484,55,140488,117347
5065,485,55,140484,117347
5067,485,55,140474,117349
5069,485,55,140468,117346
5072,484,55,140468,117345
5074,484,55,140480,117349
5078,484,55,140482,117348
5080,484,55,140482,117347
5083,484,55,140488,117355
5085,485,55,140487,117356
5087,486,55,140496,117356
5090,486,55,140503,117356
5092,487,55,140513,117356
5095,487,55,140509,117366
5097,488,55,140526,117368
5100,488,55,140544,117366
5102,489,55,140546,117376
5105,489,55,140546,117366
5107,490,55,140564,117366
5109,491,55,140563,117375
5112,491,55,140565,117381
5114,491,55,140581,117375
5117,492,55,140588,117376
5120,493,55,140590,117375
5123,493,55,140589,117376
5125,493,55,140600,117383
5127,494,55,140600,117388
5130,494,55,140622,117387
5132,495,55,140634,117387
5135,495,55,140615,117388
5137,496,55,140638,117383
5140,496,55,140648,117391
5142,497,55,140650,117386
5145,497,55,140649,117389
5147,497,55,140654,117383
5149,497,55,140649,117385
5152,498,55,140647,117393
5154,498,55,140653,117392
5157,499,55,140661,117388
5159,500,55,140667,117385
5163,500,55,140666,117391
5165,501,55,140673,117387
5167,501,55,140680,117390
5170,502,55,140687,117390
5172,501,55,140693,117397
5175,502,55,140691,117388
5177,502,55,140685,117391
5180,502,55,140701,117402
5182,503,55,140686,117397
5185,503,55,140684,117399
5187,503,55,140697,117396
5189,503,55,140694,117392
5192,503,55,140704,117396
5194,503,55,140704,117403
5197,503,55,140712,117388
5199,503,55,140720,117393
5202,503,55,140705,117398
5204,503,55,140709,117399
5207,503,55,140716,117405
5210,504,55,140710,117405
5212,504,55,140711,117401
5215,504,55,140723,117394
5217,504,55,140724,117403
5220,504,55,140726,117399
5222,504,55,140716,117405
5225,504,55,140711,117389
5227,504,55,140712,117400
5229,504,55,140711,117393
5232,505,55,140707,117392
5234,505,55,140721,117391
5237,505,55,140711,117388
5239,505,55,140707,117399
5242,505,55,140710,117383
5244,505,55,140717,117387
5246,506,54,140711,117384
5250,505,55,140714,117393
5252,506,55,140725,117393
5255,506,55,140728,117398
5257,506,55,140736,117396
5260,506,55,140729,117398
5262,506,55,140728,117399
5265,506,55,140738,117396
5267,506,55,140740,117405
5269,506,55,140739,117404
5272,506,55,140746,117404
5274,506,55,140751,117405
5277,506,55,140752,117401
5279,507,55,140750,117410
5282,507,55,140771,117413
5284,507,55,140767,117412
5286,508,55,140775,117407
5289,508,55,140782,117413
5292,508,55,140779,117409
5295,508,55,140790,117405
5297,508,55,140794,117413
5300,508,55,140798,117412
5302,509,55,140804,117418
5305,509,55,140804,117417
5307,509,55,140816,117417
5309,509,55,140816,117417
5312,509,55,140820,117419
5314,510,55,140829,117413
5317,509,55,140841,117422
5319,509,55,140845,117423
5322,510,55,140857,117430
5324,510,55,140864,117428
5326,511,55,140864,117426
5329,511,55,140868,117426
5331,511,55,140881,117426
5335,511,55,140882,117434
5337,511,55,140889,117425
5340,511,55,140889,117432
5342,511,55,140888,117433
5345,511,55,140892,117433
5347,511,55,140912,117431
5349,511,55,140898,117430
5352,511,55,140913,117431
5354,511,55,140913,117438
5357,511,55,140911,117437
5359,511,55,140914,117428
5362,511,55,140914,117429
5364,511,55,140919,117431
5366,512,55,140931,117431
5369,512,55,140934,117436
5371,512,55,140957,117442
5374,512,55,140955,117442
5377,511,55,140955,117445
5380,512,55,140975,117451
5382,512,55,140975,117452
5385,512,55,140975,117461
5387,512,55,140993,117455
5389,513,55,141005,117455
5392,512,55,141014,117472
5394,512,55,141014,117467
5397,512,55,141017,117469
5399,512,55,141035,117469
5402,512,55,141050,117476
5404,512,55,141056,117472
5406,511,55,141056,117486
5409,512,55,141061,117484
5411,513,55,141077,117484
5414,512,55,141086,117494
5416,512,55,141086,117494
5420,512,55,141084,117488
5422,512,55,141090,117488
5425,512,55,141110,117492
5427,512,55,141102,117484
5429,512,55,141102,117494
5432,512,55,141118,117491
5434,513,55,141118,117491
5437,513,55,141116,117495
5439,513,55,141116,117490
5442,513,55,141122,117500
5444,513,55,141131,117500
5446,513,55,141140,117494
5449,513,55,141137,117492
5451,513,55,141137,117492
5454,513,55,141137,117483
5456,513,55,141137,117494
5459,513,55,141149,117494
5462,512,55,141149,117498
5465,512,55,141141,117492
5467,512,55,141165,117492
5469,512,55,141158,117496
5472,512,55,141167,117488
5474,512,55,141155,117488
5477,513,55,141155,117492
5479,513,55,141162,117491
5482,513,55,141170,117491
5484,513,55,141170,117494
5486,513,55,141186,117496
5489,513,55,141178,117496
5491,513,55,141190,117490
5494,512,55,141196,117498
5496,512,55,141202,117498
5499,512,55,141202,117505
5501,512,55,141194,117508
5505,512,55,141206,117508
5507,512,55,141206,117507
5509,512,55,141214,117512
5512,513,55,141227,117512
5514,512,55,141229,117512
5517,512,55,141229,117521
5519,513,55,141222,117524
5522,513,55,141238,117524
5524,513,55,141255,117518
5526,513,55,141255,117534
5529,513,55,141256,117534
5531,512,55,141254,117532
5534,512,55,141254,117537
5536,512,55,141259,117542
5539,512,55,141276,117542
5541,512,55,141280,117544
5544,512,55,141280,117544
5547,512,55,141279,117541
5549,513,55,141283,117541
5552,513,55,141294,117537
5554,513,55,141283,117545
5557,513,55,141283,117548
5559,513,55,141302,117548
5562,513,55,141301,117548
5564,513,55,141300,117544
5566,513,55,141300,117542
5569,512,55,141313,117543
5571,512,55,141304,117543
5574,512,55,141317,117546
5576,512,55,141324,117557
5579,512,55,141324,117554
5581,512,55,141328,117558
5584,512,55,141332,117558
5586,512,55,141331,117563
5588,512,55,141338,117563
5592,512,55,141345,117563
5594,512,55,141348,117557
5597,512,55,141358,117564
5599,512,55,141358,117562
5602,512,55,141352,117570
5604,512,55,141357,117570
5606,512,55,141363,117565
5609,512,55,141364,117570
5611,512,55,141377,117577
5614,512,55,141379,117566
5616,512,55,141375,117572
5619,512,55,141392,117572
5621,512,55,141390,117570
5624,512,55,141393,117580
5626,512,55,141384,117576
5628,512,55,141387,117573
5632,512,55,141387,117572
5634,512,55,141401,117570
5637,511,55,141412,117575
5639,512,55,141418,117571
5642,511,55,141415,117576
5644,511,55,141399,117571
5646,512,55,141404,117568
5649,512,55,141403,117570
5651,512,55,141413,117574
5654,511,55,141411,117575
5656,512,55,141413,117578
5659,512,55,141418,117584
5661,512,55,141430,117576
5664,512,55,141432,117581
5666,512,55,141443,117581
5668,512,55,141436,117586
5671,512,55,141440,117577
5673,512,55,141436,117582
5677,512,55,141430,117577
5679,512,55,141435,117570
5682,512,55,141439,117574
5684,512,55,141447,117564
5686,512,55,141440,117570
5689,512,55,141440,117565
5691,511,55,141446,117569
5694,512,55,141431,117551
5696,511,55,141433,117560
5699,511,55,141433,117553
5701,511,55,141437,117553
5704,511,55,141438,117552
5706,511,55,141439,117554
5708,511,55,141433,117552
5711,512,55,141441,117548
5713,512,55,141443,117553
5716,512,55,141435,117541
5719,512,55,141430,117536
5722,512,55,141427,117541
5724,511,55,141424,117541
5726,512,55,141424,117535
5729,512,55,141417,117536
5731,512,55,141422,117533
5734,512,55,141427,117531
5736,512,55,141430,117538
5739,512,55,141444,117540
5741,512,55,141440,117546
5744,511,55,141433,117547
5746,512,55,141442,117547
5748,512,55,141443,117542
5751,512,55,141451,117547
5753,511,55,141455,117544
5756,511,55,141450,117552
5758,511,55,141463,117555
5762,512,55,141454,117551
5764,511,55,141461,117557
5766,512,55,141457,117546
5769,511,56,141476,117558
5771,511,55,141487,117568
5774,511,56,141484,117569
5776,511,55,141495,117576
5779,512,56,141496,117581
5781,512,56,141495,117581
5784,512,56,141498,117578
5786,512,55,141506,117579
5788,512,56,141505,117581
5791,512,56,141510,117584
5793,511,56,141526,117580
5796,511,56,141530,117596
5798,511,56,141521,117596
5801,511,56,141532,117594
5804,511,56,141540,117593
5806,511,56,141539,117592
5809,511,56,141554,117601
5811,511,56,141541,117606
5814,511,56,141561,117598
5816,511,56,141566,117608
5819,511,56,141566,117604
5821,512,56,141568,117608
5824,512,56,141581,117608
5826,512,56,141573,117612
5828,512,56,141577,117603
5831,512,56,141584,117610
5833,512,56,141588,117614
5836,512,56,141587,117612
5838,512,56,141590,117606
5841,512,56,141595,117610
5843,511,56,141598,117610
5846,511,56,141598,117614
5849,511,56,141598,117616
5851,512,56,141600,117616
5854,512,56,141615,117617
5856,512,56,141610,117608
5859,512,56,141610,117610
5861,512,56,141617,117612
5864,513,56,141623,117612
5866,513,56,141619,117618
5868,513,56,141626,117620
5871,512,57,141622,117624
5873,512,56,141622,117625
5876,512,56,141629,117618
5878,512,57,141643,117616
5881,512,56,141643,117621
5883,512,56,141643,117624
5885,512,56,141645,117624
5889,512,56,141647,117626
5891,511,56,141647,117626
5894,511,57,141656,117629
5896,511,56,141659,117629
5899,511,57,141671,117635
5901,511,57,141674,117637
5904,511,57,141676,117642
5906,512,57,141674,117640
5908,512,57,141684,117640
5911,513,57,141679,117644
5913,513,57,141679,117644
5916,513,57,141695,117653
5918,514,57,141693,117653
5921,514,57,141709,117656
5923,514,57,141709,117658
5925,515,57,141709,117657
5928,516,57,141721,117656
5931,517,57,141720,117656
5934,517,57,141719,117660
5936,517,57,141719,117662
5939,518,57,141725,117658
5941,519,57,141736,117658
5944,519,57,141743,117662
5946,520,57,141754,117661
5948,520,57,141754,117662
5951,520,57,141750,117660
5953,520,57,141751,117660
5956,520,57,141753,117668
5958,519,57,141753,117675
5961,519,57,141764,117675
5963,519,57,141767,117675
5965,519,57,141777,117676
5968,519,57,141786,117676
5970,518,57,141773,117676
5974,516,57,141773,117687
5976,514,57,141785,117684
5979,513,57,141796,117684
5981,512,57,141796,117698
5984,512,57,141808,117688
5986,511,57,141802,117688
5988,510,57,141810,117686
5991,509,57,141812,117695
5993,508,57,141822,117695
5996,507,57,141822,117692
5998,506,57,141816,117698
6001,506,57,141818,117698
6003,505,57,141818,117692
6005,505,57,141827,117699
6008,505,57,141833,117702
6010,504,57,141833,117707
6013,505,57,141841,117707
6016,505,57,141817,117703
6019,505,57,141817,117704
6021,505,57,141810,117706
6024,505,57,141848,117706
6026,505,57,141856,117707
6028,505,57,141859,117714
6031,502,57,141859,117712
6033,499,57,141868,117714
6036,496,57,141866,117714
6038,493,57,141882,117719
6041,487,57,141882,117721
6043,486,57,141879,117721
6045,488,57,141879,117729
6048,492,57,141889,117730
6050,499,57,141892,117730
6053,508,57,141901,117725
6055,519,57,141903,117734
6059,541,57,141903,117738
6061,556,57,141911,117733
6064,568,57,141915,117733
6066,583,57,141915,117735
6068,595,57,141915,117739
6071,623,57,141917,117737
6073,632,57,141921,117740
6076,636,57,141921,117745
6078,633,57,141920,117739
6081,626,57,141923,117739
6083,616,57,141935,117741
6085,602,57,141924,117738
6088,588,57,141935,117735
6090,560,57,141930,117739
6093,546,57,141943,117743
6095,529,57,141943,117739
6098,499,57,141935,117742
6100,488,57,141945,117742
6104,479,57,141945,117741
6106,474,57,141947,117745
6108,473,57,141952,117741
6111,472,57,141949,117737
6113,476,57,141948,117740
6116,477,57,141960,117740
6118,479,57,141960,117744
6121,481,57,141958,117744
6123,484,57,141962,117747
6125,484,57,141978,117751
6128,484,57,141968,117756
6130,483,57,141960,117747
6133,483,57,141969,117747
6135,482,57,141967,117748
6138,482,57,141969,117747
6140,482,57,141978,117741
6144,482,57,141972,117745
6146,484,57,141978,117749
6148,484,57,141986,117755
6151,485,57,141986,117750
6153,485,57,141987,117750
6156,486,57,141996,117759
6158,487,57,142007,117756
6161,487,57,142001,117763
6163,487,57,142002,117763
6165,487,57,142012,117769
6168,488,57,142005,117769
6170,489,57,142004,117765
6173,490,57,142011,117758
6175,491,57,142018,117769
6178,491,57,142015,117772
6180,492,57,142029,117771
6183,492,57,142037,117777
6185,494,57,142039,117774
6188,494,57,142038,117779
6191,495,57,142039,117776
6193,495,57,142037,117780
6196,496,57,142045,117780
6198,496,57,142039,117793
6201,496,57,142048,117787
6203,497,57,142052,117791
6205,497,57,142052,117792
6208,497,57,142056,117780
6210,497,57,142063,117792
6213,498,57,142073,117790
6215,499,57,142072,117794
6218,499,57,142077,117791
6220,500,57,142064,117786
6223,500,57,142071,117791
6225,501,57,142070,117792
6227,501,57,142076,117795
6231,501,56,142081,117794
6233,501,57,142086,117788
6236,503,57,142077,117791
6238,503,57,142080,117799
6241,504,57,142086,117793
6243,504,57,142084,117797
6245,505,57,142096,117803
6248,505,57,142095,117801
6250,505,57,142094,117796
6253,506,57,142094,117802
6255,506,56,142098,117813
6258,506,57,142102,117805
6260,507,57,142104,117808
6263,508,57,142117,117812
6265,508,57,142109,117816
6267,508,57,142108,117819
6270,508,57,142109,117811
6273,509,57,142111,117816
6276,509,57,142116,117822
6278,510,57,142122,117820
6281,510,57,142126,117813
6283,511,57,142114,117814
6285,512,57,142133,117821
6288,512,57,142127,117812
6290,512,57,142115,117813
6293,513,57,142120,117817
6295,513,57,142126,117818
6298,513,57,142118,117817
6300,514,57,142118,117816
6303,514,57,142119,117812
6305,514,57,142115,117807
6307,515,56,142100,117801
6310,515,57,142091,117804
6312,516,57,142079,117796
6316,517,57,142073,117790
6318,517,57,142056,117782
6321,517,57,142047,117788
6323,517,57,142030,117775
6325,518,57,142011,117760
6328,519,57,141989,117763
6330,520,57,141960,117749
6333,520,57,141934,117742
6335,521,57,141907,117729
6338,522,57,141875,117727
6340,523,57,141842,117706
6343,524,57,141842,117691
6345,525,57,141753,117671
6347,526,57,141700,117671
6350,528,57,141659,117647
6352,528,57,141599,117621
6355,529,57,141599,117604
6358,530,57,141489,117582
6361,531,57,141436,117582
6363,533,57,141393,117555
6365,534,57,141335,117531
6368,536,57,141278,117515
6370,537,57,141278,117499
6373,538,57,141177,117491
6375,540,57,141127,117471
6378,541,57,141127,117456
6380,542,57,141048,117439
6383,544,57,141000,117439
6385,546,57,140969,117425
6387,546,57,140927,117405
6390,548,57,140892,117399
6392,549,57,140892,117392
6395,550,57,140824,117381
6397,551,57,140795,117381
6401,552,57,140781,117375
6403,554,57,140740,117363
6405,554,57,140740,117354
6408,554,57,140685,117351
6410,555,57,140666,117351
6413,554,57,140633,117340
6415,553,57,140633,117337
6418,552,57,140616,117327
6420,551,57,140568,117327
6423,550,57,140573,117327
6425,546,57,140546,117315
6427,544,57,140546,117309
6430,541,57,140504,117308
6432,538,57,140504,117308
6435,535,57,140491,117298
6437,529,57,140491,117292
6440,525,57,140479,117295
6443,522,57,140456,117295
6445,518,57,140464,117300
6448,510,57,140445,117280
6450,507,57,140445,117282
6453,503,57,140427,117286
6455,500,57,140422,117286
6458,497,57,140415,117276
6460,491,57,140415,117274
6463,487,57,140404,117276
6465,485,57,140409,117276
6467,483,57,140412,117274
6470,478,57,140407,117269
6472,477,57,140401,117269
6475,473,57,140392,117268
6477,471,57,140392,117271
6480,470,57,140400,117270
6482,468,57,140391,117280
6484,467,57,140391,117276
6488,467,57,140398,117276
6490,466,57,140403,117274
6493,465,57,140409,117273
6495,464,57,140409,117282
6498,464,57,140410,117282
6500,464,57,140410,117289
6503,464,57,140423,117285
6505,464,57,140425,117285
6507,464,57,140430,117293
6510,465,57,140428,117287
6512,465,57,140434,117287
6515,466,57,140434,117297
6517,467,57,140437,117302
6520,468,57,140437,117302
6522,468,57,140437,117299
6524,469,57,140452,117308
6528,471,57,140451,117311
6530,471,57,140451,117304
6533,472,57,140464,117304
6535,473,57,140433,117318
6538,474,57,140433,117311
6540,475,57,140434,117308
6543,476,57,140452,117308
6545,476,57,140460,117311
6547,477,57,140450,117311
6550,477,57,140450,117309
6552,478,57,140447,117311
6555,479,57,140440,117311
6557,479,57,140441,117308
6560,480,57,140441,117304
6562,482,57,140437,117298
6564,483,57,140433,117298
6567,484,57,140431,117301
6569,484,57,140418,117294
6573,486,57,140418,117294
6575,487,57,140416,117290
6578,488,57,140401,117290
6580,488,57,140392,117287
6583,489,57,140392,117279
6585,490,57,140392,117277
6587,490,57,140387,117277
6590,491,57,140380,117279
6592,491,57,140382,117280
6595,492,57,140385,117276
6597,493,57,140383,117272
6600,494,57,140377,117264
6602,495,57,140374,117273
6604,495,57,140374,117270
6607,495,57,140383,117268
6609,496,57,140370,117268
6612,497,57,140386,117270
6615,497,57,140385,117271
6618,498,57,140393,117272
6620,498,57,140389,117274
6623,499,57,140407,117269
6625,499,57,140398,117276
6627,499,57,140396,117262
6630,499,57,140407,117264
6632,500,57,140402,117272
6635,500,57,140408,117273
6637,500,57,140426,117278
6640,501,57,140429,117276
6642,501,57,140446,117279
6644,502,57,140447,117279
6647,502,57,140446,117288
6649,502,57,140447,117281
6652,502,57,140462,117287
6654,503,57,140467,117283
6658,503,57,140481,117288
6660,503,57,140486,117299
6663,503,57,140491,117302
6665,503,57,140499,117307
6667,503,57,140513,117310
6670,503,57,140516,117322
6672,504,57,140542,117322
6675,504,57,140535,117321
6677,504,57,140560,117323
6680,504,57,140563,117328
6682,504,57,140576,117331
6684,504,56,140577,117330
6687,504,57,140581,117333
6689,504,57,140588,117338
6692,504,57,140583,117333
6694,504,57,140586,117341
6697,505,56,140587,117335
6700,506,57,140600,117338
6703,506,57,140600,117334
6705,506,57,140610,117336
6707,506,57,140615,117340
6710,507,57,140608,117339
6712,507,57,140612,117336
6715,508,57,140606,117337
6717,508,57,140618,117336
6720,509,57,140606,117336
6722,511,57,140621,117328
6724,512,57,140606,117335
6727,514,57,140621,117324
6729,515,57,140616,117324
6732,516,57,140624,117326
6734,518,57,140619,117327
6737,519,56,140617,117334
6739,519,57,140623,117332
6743,519,56,140626,117328
6745,518,57,140619,117330
6747,517,57,140627,117336
6750,516,56,140628,117330
6752,515,57,140635,117327
6755,515,57,140625,117335
6757,514,57,140645,117342
6760,512,57,140623,117343
6762,511,57,140640,117348
6764,511,57,140653,117338
6767,511,57,140644,117347
6769,510,57,140647,117345
6772,508,57,140657,117343
6774,506,57,140660,117350
6777,506,57,140656,117342
6779,504,57,140665,117331
6782,504,57,140671,117346
6785,503,57,140672,117351
6787,503,57,140669,117352
6790,503,57,140667,117349
6792,502,57,140662,117354
6795,502,57,140669,117350
6797,501,57,140671,117351
6800,501,57,140679,117345
6802,501,57,140682,117353
6804,501,57,140692,117353
6807,502,57,140691,117348
6809,502,57,140688,117352
6812,502,57,140688,117354
6814,502,57,140702,117347
6817,501,57,140696,117352
6819,501,57,140704,117356
6822,502,57,140711,117354
6824,502,56,140720,117369
6827,502,57,140716,117358
6830,502,57,140735,117368
6832,502,57,140730,117359
6835,502,57,140742,117362
6837,503,57,140752,117366
6840,503,57,140752,117375
6842,503,57,140757,117378
6844,503,57,140768,117378
6847,503,57,140785,117385
6849,503,57,140784,117378
6852,503,57,140786,117390
6854,504,57,140802,117395
6857,504,56,140812,117390
6859,505,57,140832,117400
6862,505,57,140832,117405
6864,505,57,140841,117405
6866,505,57,140848,117405
6870,505,57,140855,117417
6872,506,57,140867,117404
6875,506,57,140867,117421
6877,506,56,140882,117416
6880,506,56,140884,117416
6882,506,57,140895,117422
6884,507,57,140895,117416
6887,507,56,140899,117425
6889,507,57,140902,117425
6892,507,57,140914,117426
6894,506,57,140926,117420
6897,506,57,140926,117429
6899,507,57,140934,117422
6902,507,57,140934,117422
6904,507,56,140949,117429
6906,507,57,140949,117429
6909,508,56,140957,117433
6912,508,57,140957,117433
6915,508,57,140972,117431
6917,508,57,140974,117432
6920,508,57,140977,117442
6922,508,57,140977,117432
6924,509,57,140984,117435
6927,509,56,140989,117435
6929,509,57,140989,117429
6932,509,57,140993,117432
6934,510,57,140992,117432
6937,509,56,141003,117437
6939,509,57,141011,117435
6942,509,57,141011,117433
6944,509,57,141013,117440
6946,509,57,141017,117440
6949,509,57,141027,117443
6951,509,57,141027,117444
6955,509,56,141022,117437
6957,509,57,141047,117437
6960,509,57,141041,117449
6962,509,57,141041,117452
6964,509,56,141048,117460
6967,509,57,141058,117460
6969,509,57,141064,117459
6972,509,57,141076,117454
6974,509,57,141076,117464
6977,509,57,141077,117459
6979,509,57,141082,117459
6982,509,57,141084,117467
6984,509,56,141084,117463
6986,509,56,141082,117466
6989,509,57,141091,117466
6991,509,57,141112,117469
6994,509,57,141108,117473
6996,508,56,141108,117464
7000,508,57,141118,117477
7002,508,57,141120,117477
7004,508,57,141125,117475
7007,508,57,141125,117477
7009,508,57,141134,117470
7012,508,57,141127,117470
7014,508,57,141142,117480
7017,509,56,141142,117486
7019,509,57,141148,117486
7022,509,57,141153,117487
7024,509,57,141153,117488
7026,509,57,141161,117493
7029,509,57,141176,117493
7031,509,57,141181,117496
7034,510,57,141181,117501
7036,510,57,141186,117503
7040,510,57,141188,117503
7042,511,57,141209,117504
7044,511,57,141203,117509
7047,511,57,141203,117508
7049,511,57,141210,117512
7052,511,57,141224,117512
7054,511,57,141225,117516
7057,511,57,141225,117519
7059,512,56,141227,117520
7062,512,57,141238,117520
7064,512,57,141236,117522
7066,512,57,141236,117518
7069,512,57,141239,117518
7071,512,57,141239,117518
7074,512,57,141254,117532
7076,512,56,141261,117530
7079,512,57,141255,117530
7081,512,57,141273,117528
7084,511,57,141273,117534
7087,511,57,141282,117534
7089,511,57,141282,117542
7092,512,57,141285,117543
7094,512,57,141294,117542
7097,512,57,141297,117542
7099,512,57,141306,117548
7102,512,57,141308,117548
7104,512,57,141320,117550
7106,512,57,141321,117552
7109,512,57,141321,117554
7111,512,57,141324,117554
7114,512,57,141326,117556
7116,512,57,141327,117557
7119,512,57,141341,117560
7121,512,57,141354,117564
7123,512,57,141354,117559
7127,512,57,141343,117567
7129,512,57,141349,117556
7132,512,57,141354,117565
7134,512,57,141352,117560
7137,512,57,141352,117563
7139,513,57,141365,117563
7142,512,57,141369,117567
7144,512,57,141385,117560
7146,512,57,141377,117557
7149,512,57,141367,117558
7151,512,57,141377,117564
7154,512,57,141389,117559
7156,512,57,141375,117560
7159,512,56,141389,117562
7161,512,57,141393,117560
7163,512,57,141396,117564
7166,512,57,141388,117566
7169,512,57,141394,117565
7172,512,56,141398,117565
7174,512,57,141395,117570
7177,512,57,141399,117574
7179,512,57,141415,117562
7182,512,57,141415,117568
7184,512,57,141418,117569
7186,512,57,141417,117568
7189,512,57,141421,117571
7191,512,57,141420,117572
7194,512,57,141423,117574
7196,512,57,141421,117571
7199,512,57,141421,117574
7201,512,57,141431,117567
7203,512,57,141441,117578
7206,512,57,141452,117576
7208,511,57,141462,117585
7212,511,57,141454,117586
7214,511,57,141454,117595
7217,511,57,141454,117590
7219,511,57,141468,117591
7222,511,57,141460,117592
7224,512,57,141478,117596
7226,512,56,141478,117598
7229,512,57,141496,117600
7231,512,57,141494,117605
7234,511,57,141502,117598
7236,511,57,141509,117604
7239,511,57,141507,117610
7241,511,57,141499,117612
7243,511,57,141510,117609
7246,511,57,141506,117606
7248,511,57,141516,117617
7251,511,57,141524,117614
7254,511,57,141520,117614
7257,512,57,141527,117616
7259,512,57,141538,117610
7262,511,57,141525,117617
7264,511,57,141526,117612
7266,511,56,141541,117613
7269,512,57,141536,117611
7271,512,57,141544,117613
7274,511,56,141542,117614
7276,511,57,141548,117620
7279,511,56,141545,117616
7281,511,56,141546,117614
7283,510,56,141548,117598
7286,510,56,141544,117619
7288,510,56,141557,117610
7291,510,56,141553,117606
7293,510,57,141561,117607
7297,510,56,141554,117614
7299,510,56,141557,117616
7302,510,56,141562,117613
7304,510,56,141564,117617
7306,510,56,141576,117618
7309,510,56,141572,117625
7311,510,56,141578,117625
7314,510,56,141584,117637
7316,510,56,141583,117633
7319,510,56,141601,117636
7321,510,56,141597,117641
7323,510,56,141605,117640
7326,510,56,141623,117641
7328,510,56,141614,117643
7331,510,56,141622,117653
7333,510,56,141640,117661
7336,510,57,141642,117664
7339,510,57,141644,117659
7342,510,56,141660,117659
7344,510,56,141659,117661
7346,511,57,141656,117668
7349,510,56,141676,117667
7351,510,56,141663,117668
7354,510,56,141670,117670
7356,510,56,141674,117663
7359,510,57,141674,117675
7361,510,57,141685,117673
7363,510,56,141686,117673
7366,510,56,141703,117683
7368,510,57,141701,117680
7371,510,56,141707,117683
7373,510,56,141704,117679
7376,510,56,141717,117683
7378,510,57,141720,117681
7382,510,56,141720,117682
7384,510,56,141727,117681
7386,510,56,141724,117681
7389,510,56,141736,117687
7391,510,57,141728,117684
7394,510,56,141728,117679
7396,510,57,141736,117683
7399,511,56,141725,117683
7401,511,57,141731,117672
7403,511,57,141731,117677
7406,511,57,141728,117676
7408,511,56,141740,117676
7411,511,57,141740,117676
7413,510,56,141738,117671
7416,510,56,141738,117672
7418,510,56,141744,117676
7421,510,57,141738,117676
7424,510,56,141750,117672
7426,510,57,141750,117677
7429,510,56,141751,117670
7431,510,57,141745,117670
7434,510,56,141757,117677
7436,510,57,141759,117678
7439,510,56,141755,117677
7441,510,56,141755,117678
7443,510,56,141752,117678
7446,510,56,141756,117679
7448,510,57,141756,117676
7451,509,56,141759,117682
7453,510,57,141768,117682
7456,510,56,141765,117678
7458,509,57,141765,117676
7461,510,56,141780,117678
7463,510,57,141778,117678
7465,510,57,141786,117685
7469,510,56,141785,117686
7471,510,57,141790,117686
7474,510,57,141790,117691
7476,510,56,141790,117695
7479,510,56,141797,117696
7481,510,57,141794,117707
7483,510,57,141794,117701
7486,509,57,141806,117701
7488,509,57,141816,117702
7491,509,57,141817,117698
7493,509,57,141817,117700
7496,509,56,141825,117700
7498,509,56,141825,117709
7501,509,57,141818,117712
7503,510,56,141827,117712
7505,509,57,141835,117709
7508,509,57,141841,117714
7511,509,57,141841,117714
7514,509,57,141841,117712
7516,509,57,141843,117717
7519,509,57,141840,117717
7521,509,56,141840,117722
7523,509,57,141865,117720
7526,510,57,141855,117725
7528,510,57,141855,117730
7531,510,57,141869,117730
7533,510,57,141869,117731
7536,510,57,141869,117723
7538,509,56,141878,117724
7541,509,57,141875,117724
7543,507,57,141887,117729
7545,504,57,141884,117729
7548,498,56,141884,117730
7550,495,57,141888,117730
7554,494,56,141888,117730
7556,494,56,141894,117734
7559,501,57,141894,117738
7561,510,56,141901,117742
7563,518,57,141905,117742
7566,530,57,141910,117746
7568,541,57,141911,117736
7571,569,56,141911,117735
7573,587,56,141911,117738
7576,601,57,141907,117738
7578,614,57,141912,117741
7581,631,57,141912,117739
7583,654,57,141916,117742
7585,659,57,141924,117742
7588,658,57,141922,117747
7590,651,57,141922,117741
7593,628,57,141933,117750
7596,612,57,141932,117750
7599,596,57,141933,117746
7601,577,57,141939,117750
7603,560,57,141939,117746
7606,541,57,141941,117738
7608,504,57,141931,117738
7611,491,57,141935,117747
7613,481,57,141936,117744
7616,476,57,141932,117737
7618,473,57,141943,117740
7621,475,57,141960,117736
7623,478,57,141941,117737
7625,481,57,141938,117725
7628,485,56,141943,117725
7630,488,57,141939,117733
7633,488,57,141934,117727
7635,487,57,141934,117734
7639,486,57,141933,117734
7641,483,57,141942,117736
7643,482,57,141956,117729
7646,482,57,141951,117729
7648,481,57,141949,117728
7651,481,56,141953,117737
7653,482,56,141947,117728
7656,482,57,141944,117732
7658,482,56,141949,117726
7661,482,57,141946,117735
7663,483,56,141950,117727
7665,484,56,141957,117734
7668,484,56,141944,117739
7670,484,57,141961,117725
7673,485,56,141957,117731
7675,487,57,141960,117737
7678,487,56,141963,117739
7681,488,56,141960,117736
7683,488,56,141955,117736
7686,488,56,141966,117743
7688,489,56,141967,117738
7691,490,56,141973,117739
7693,491,56,141972,117746
7696,491,56,141981,117750
7698,491,56,141970,117743
7701,491,56,141984,117736
7703,492,56,141980,117749
7705,493,56,141986,117752
7708,494,56,141994,117744
7710,494,56,142002,117753
7713,495,56,142001,117755
7715,496,56,142004,117756
7718,496,56,142001,117753
7720,496,56,142004,117751
7723,497,56,141995,117750
7726,498,56,141995,117748
7728,497,56,141995,117750
7731,497,56,142001,117744
7733,497,56,142006,117746
7736,498,56,142010,117747
7738,498,56,141991,117743
7741,499,56,141998,117748
7743,500,56,141999,117743
7745,500,56,142003,117752
7748,501,56,142009,117746
7750,501,56,142009,117748
7753,502,56,142008,117750
7755,502,56,142005,117751
7758,503,56,142007,117749
7760,503,56,142010,117746
7762,503,56,142012,117744
7766,504,56,142014,117745
7768,505,56,142014,117754
7771,505,56,142011,117744
7773,505,56,142021,117746
7776,506,56,142014,117747
7778,506,56,142019,117749
7781,506,56,142029,117756
7783,507,56,142023,117758
7785,507,56,142026,117754
7788,508,56,142028,117755
7790,509,56,142025,117755
7793,509,56,142023,117760
7795,509,56,142033,117763
7798,509,57,142032,117760
7800,509,56,142032,117763
7802,510,56,142020,117760
7805,510,56,142029,117758
7808,510,56,142023,117759
7811,511,56,142017,117756
7813,511,56,142014,117755
7816,512,56,142004,117748
7818,512,56,141992,117746
7821,513,56,141990,117747
7823,513,56,141977,117747
7825,513,56,141960,117734
7828,514,56,141935,117735
7830,515,57,141917,117716
7833,516,56,141893,117721
7835,517,56,141866,117703
7838,517,56,141839,117704
7840,518,56,141811,117696
7842,518,56,141771,117678
7845,519,56,141736,117668
7847,519,56,141693,117645
7851,521,56,141647,117636
7853,522,56,141597,117617
7856,523,56,141597,117604
7858,524,56,141489,117584
7861,525,56,141447,117584
7863,526,56,141397,117558
7865,527,56,141339,117539
7868,529,56,141286,117522
7870,530,56,141242,117508
7873,531,56,141195,117490
7875,533,57,141139,117471
7878,534,57,141139,117461
7880,536,56,141047,117455
7882,537,57,141000,117455
7885,539,57,140972,117428
7887,540,57,140924,117415
7890,543,57,140886,117398
7892,544,57,140886,117387
7896,545,57,140814,117378
7898,547,57,140770,117369
7901,548,57,140770,117359
7903,549,57,140702,117352
7905,551,57,140679,117352
7908,553,57,140647,117339
7910,554,57,140647,117325
7913,554,57,140611,117313
7915,555,57,140553,117313
7918,555,57,140539,117309
7920,555,57,140512,117295
7922,555,57,140512,117288
7925,554,57,140468,117297
7927,554,57,140452,117297
7930,553,57,140442,117287
7932,550,57,140442,117283
7936,548,57,140425,117274
7938,546,57,140388,117274
7941,543,57,140385,117271
7943,538,57,140376,117265
7945,535,57,140376,117272
7948,530,57,140362,117263
7950,527,57,140347,117263
7953,523,57,140347,117265
7955,516,57,140333,117256
7958,513,57,140336,117259
7960,507,57,140336,117257
7962,502,57,140325,117249
7965,497,57,140315,117250
7967,494,57,140315,117253
7970,490,57,140318,117244
7972,488,57,140319,117244
7975,485,57,140323,117256
7977,480,57,140323,117248
7981,477,57,140318,117247
7983,476,57,140318,117247
7985,474,57,140327,117251
7988,471,57,140331,117247
7990,470,57,140320,117247
7993,467,57,140320,117250
7995,466,57,140331,117256
7998,466,57,140333,117256
8000,465,57,140333,117260
8002,465,57,140337,117262
8005,465,57,140336,117262
8007,464,57,140344,117256
8010,464,57,140344,117264
8012,464,57,140353,117264
8015,465,57,140353,117263
8017,466,57,140350,117262
8020,466,57,140349,117262
8023,467,57,140349,117262
8025,468,57,140350,117259
8028,469,57,140348,117259
8030,469,57,140358,117268
8033,470,57,140358,117260
8035,471,57,140355,117260
8038,472,57,140355,117265
8040,472,57,140317,117265
8042,473,57,140347,117265
8045,474,57,140347,117267
8047,475,57,140355,117262
8050,476,57,140351,117262
8052,476,57,140346,117267
8055,478,57,140346,117262
8057,478,57,140345,117262
8060,480,57,140345,117254
8062,481,57,140340,117258
8065,482,57,140339,117258
8068,483,57,140343,117264
8070,484,57,140337,117262
8073,485,57,140337,117258
8075,486,57,140336,117267
8078,487,57,140324,117267
8080,487,57,140336,117270
8082,488,57,140336,117257
8085,489,57,140337,117259
8087,490,57,140330,117259
8090,491,57,140331,117262
8092,491,57,140321,117265
8095,492,57,140321,117268
8097,492,57,140334,117265
8100,493,57,140327,117265
8102,493,57,140330,117264
8104,494,57,140333,117271
8108,495,57,140344,117271
8110,496,57,140344,117275
8113,496,57,140354,117275
8115,496,57,140354,117271
8118,496,57,140353,117276
8120,497,57,140354,117279
8122,498,57,140363,117279
8125,498,57,140365,117278
8127,499,57,140371,117277
8130,499,57,140384,117279
8132,500,57,140389,117291
8135,500,57,140403,117281
8137,500,57,140402,117295
8140,500,57,140402,117290
8142,501,57,140419,117290
8144,501,57,140414,117287
8147,501,57,140422,117303
8150,501,57,140430,117297
8153,501,57,140441,117295
8155,502,57,140435,117295
8158,502,57,140431,117298
8160,502,57,140441,117297
8162,502,57,140446,117296
8165,502,57,140450,117293
8167,503,57,140468,117302
8170,503,57,140450,117297
8172,503,57,140465,117298
8175,503,57,140470,117300
8177,504,57,140468,117299
8180,504,57,140477,117305
8182,504,57,140479,117300
8184,504,57,140475,117307
8187,504,57,140475,117309
8189,504,57,140477,117307
8193,504,57,140485,117304
8195,505,57,140489,117308
8198,505,57,140484,117316
8200,505,57,140495,117311
8202,505,57,140499,117314
8205,505,57,140499,117315
8207,505,57,140500,117318
8210,505,57,140504,117323
8212,505,57,140509,117310
8215,505,57,140517,117311
8217,505,57,140518,117314
8220,506,57,140514,117326
8222,506,57,140525,117316
8224,506,57,140518,117320
8227,506,57,140518,117317
8229,506,57,140518,117314
8232,506,57,140521,117319
8235,506,57,140530,117311
8238,506,57,140513,117315
8240,507,57,140528,117314
8242,507,57,140529,117318
8245,507,57,140537,117313
8247,507,57,140524,117321
8250,507,57,140529,117321
8252,507,57,140539,117318
8255,507,57,140537,117322
8257,507,57,140531,117320
8260,507,57,140542,117317
8262,507,57,140533,117320
8264,507,57,140537,117325
8267,507,57,140537,117323
8269,507,57,140545,117309
8272,507,57,140545,117325
8274,507,57,140541,117324
8278,507,57,140543,117323
8280,507,57,140545,117320
8282,507,57,140546,117319
8285,507,57,140549,117317
8287,507,57,140550,117320
8290,508,57,140559,117320
8292,508,57,140558,117323
8295,508,57,140565,117321
8297,508,57,140561,117304
8300,509,58,140578,117322
8302,508,57,140579,117323
8304,509,57,140569,117327
8307,509,58,140584,117331
8309,509,57,140583,117327
8312,509,57,140596,117329
8314,508,57,140594,117332
8317,509,57,140607,117339
8320,509,57,140606,117337
8322,509,57,140627,117346
8325,509,57,140626,117347
8327,509,57,140624,117344
8330,510,57,140638,117350
8332,510,57,140646,117337
8335,509,57,140651,117351
8337,509,57,140644,117345
8340,509,58,140655,117346
8342,509,58,140668,117353
8344,510,58,140671,117352
8347,510,57,140679,117360
8349,510,57,140692,117355
8352,509,58,140690,117357
8354,510,57,140695,117348
8357,509,57,140695,117357
8359,510,57,140700,117359
8361,510,57,140715,117359
8365,510,57,140726,117358
8367,510,58,140727,117358
8370,510,58,140734,117358
8372,510,58,140739,117362
8375,510,57,140742,117364
8377,510,57,140755,117362
8380,510,57,140755,117364
8382,510,58,140763,117370
8384,511,58,140771,117370
8387,511,58,140794,117385
8389,511,58,140798,117381
8392,511,58,140798,117376
8394,511,57,140790,117379
8397,511,58,140803,117379
8399,510,57,140815,117378
8401,511,58,140815,117381
8404,511,58,140814,117379
8407,512,58,140824,117379
8410,513,58,140845,117397
8412,513,57,140837,117387
8415,513,58,140837,117393
8417,513,58,140856,117398
8420,514,58,140860,117398
8422,514,58,140871,117400
8424,515,58,140871,117406
8427,516,57,140867,117404
8429,517,57,140880,117404
8432,518,57,140897,117402
8434,519,58,140891,117407
8437,519,58,140903,117409
8439,517,58,140903,117408
8441,517,58,140905,117412
8444,517,58,140907,117420
8446,517,58,140907,117413
8450,517,58,140926,117416
8452,517,58,140925,117416
8455,516,58,140933,117416
8457,513,58,140940,117419
8460,512,58,140938,117421
8462,511,58,140949,117423
8464,512,58,140950,117423
8467,513,58,140954,117418
8469,512,58,140954,117421
8472,511,58,140958,117423
8474,511,58,140968,117423
8477,510,58,140965,117432
8479,509,58,140965,117430
8481,509,58,140967,117433
8484,509,58,140994,117433
8486,509,58,140996,117439
8489,508,58,140998,117434
8492,507,58,140998,117445
8495,507,58,141005,117444
8497,507,58,141022,117444
8500,507,58,141027,117449
8502,507,58,141027,117444
8504,507,58,141033,117450
8507,507,58,141034,117450
8509,507,58,141050,117445
8512,507,58,141046,117453
8514,507,58,141046,117457
8517,508,58,141060,117454
8519,508,58,141073,117454
8521,508,58,141079,117457
8524,508,58,141079,117468
8526,509,58,141077,117470
8529,509,58,141091,117470
8531,509,58,141094,117464
8535,509,58,141094,117470
8537,509,58,141087,117470
8540,509,58,141094,117472
8542,509,58,141094,117471
8544,509,58,141097,117474
8547,509,58,141103,117474
8549,509,58,141105,117474
8552,509,58,141105,117469
8554,509,58,141100,117472
8557,509,58,141117,117472
8559,509,58,141113,117470
8561,510,58,141112,117471
8564,510,58,141112,117477
8566,510,58,141121,117485
8569,510,58,141129,117485
8571,510,58,141130,117480
8574,510,58,141130,117480
8577,510,58,141127,117475
8580,510,58,141133,117475
8582,510,58,141139,117478
8584,510,58,141139,117477
8587,511,58,141138,117477
8589,511,58,141138,117481
8592,510,58,141140,117485
8594,510,58,141146,117478
8597,511,58,141149,117478
8599,510,58,141144,117487
8601,511,58,141144,117480
8604,511,58,141157,117483
8606,510,58,141161,117481
8609,510,58,141162,117484
8611,510,58,141162,117478
8614,510,58,141164,117487
8616,510,58,141163,117487
8620,511,58,141164,117489
8622,511,58,141165,117488
8624,511,58,141173,117490
8627,511,58,141185,117489
8629,511,58,141180,117483
8632,511,58,141188,117488
8634,511,58,141188,117494
8637,510,58,141191,117494
8639,510,58,141190,117485
8641,510,58,141206,117488
8644,511,58,141190,117487
8646,511,58,141201,117487
8649,511,58,141199,117481
8651,511,58,141203,117487
8654,511,58,141203,117489
8656,511,58,141197,117488
8659,511,58,141196,117485
8662,511,58,141196,117486
8664,511,58,141203,117489
8667,511,58,141205,117489
8669,510,58,141217,117489
8672,510,58,141226,117493
8674,511,58,141225,117493
8677,511,58,141228,117497
8679,510,58,141221,117488
8681,510,58,141227,117496
8684,510,58,141228,117499
8686,510,58,141228,117501
8689,510,58,141240,117509
8691,510,58,141239,117505
8694,510,58,141247,117503
8696,510,58,141252,117503
8699,510,58,141255,117509
8701,510,58,141264,117513
8704,510,58,141275,117517
8707,510,58,141265,117508
8709,510,58,141278,117510
8712,510,58,141278,117514
8714,510,58,141276,117516
8717,510,58,141281,117521
8719,511,58,141285,117524
8721,511,58,141291,117530
8724,511,58,141308,117521
8726,511,58,141308,117532
8729,511,58,141318,117530
8731,511,58,141321,117531
8734,511,58,141322,117539
8736,511,58,141331,117532
8739,510,58,141336,117535
8741,511,58,141326,117540
8743,510,58,141337,117540
8747,510,58,141353,117541
8749,510,58,141358,117536
8752,511,58,141352,117549
8754,511,58,141364,117552
8757,511,58,141364,117548
8759,511,58,141379,117555
8761,511,58,141383,117549
8764,511,58,141378,117551
8766,511,58,141389,117552
8769,511,58,141384,117559
8771,511,58,141394,117557
8774,512,58,141399,117556
8776,512,58,141406,117554
8779,512,58,141406,117556
8781,512,58,141402,117565
8783,512,58,141415,117562
8786,512,58,141406,117562
8788,512,58,141422,117565
8792,512,58,141423,117565
8794,512,58,141428,117569
8797,512,58,141426,117566
8799,512,58,141441,117571
8801,512,58,141435,117570
8804,512,58,141447,117574
8806,512,58,141446,117577
8809,512,58,141451,117569
8811,512,58,141459,117579
8814,512,58,141455,117576
8816,512,58,141472,117573
8819,512,58,141465,117580
8821,512,58,141467,117578
8823,512,58,141464,117578
8826,512,58,141471,117585
8828,512,58,141474,117587
8832,512,58,141482,117592
8834,512,58,141497,117585
8837,512,58,141496,117591
8839,512,58,141502,117592
8841,512,58,141502,117577
8844,511,58,141507,117598
8846,511,58,141505,117592
8849,511,58,141518,117590
8851,512,58,141517,117600
8854,512,58,141523,117595
8856,512,58,141536,117607
8859,512,58,141532,117602
8861,512,58,141536,117605
8863,512,58,141541,117603
8866,512,58,141539,117612
8868,512,58,141545,117604
8871,512,58,141545,117604
8873,512,58,141550,117607
8877,512,58,141560,117607
8879,512,58,141566,117616
8881,512,58,141561,117606
8884,512,58,141560,117615
8886,512,58,141560,117615
8889,512,58,141578,117614
8891,512,58,141577,117622
8894,512,58,141577,117620
8896,512,58,141592,117625
8899,512,58,141592,117625
8901,511,58,141607,117635
8903,511,58,141604,117633
8906,511,58,141608,117639
8908,511,58,141608,117635
8911,511,58,141616,117640
8913,511,58,141630,117640
8916,511,58,141638,117645
8919,511,58,141628,117638
8921,511,58,141628,117643
8924,511,58,141642,117650
8926,511,58,141647,117650
8929,511,58,141654,117660
8931,511,58,141654,117656
8934,511,58,141656,117652
8936,511,58,141662,117652
8939,511,58,141672,117661
8941,511,58,141672,117660
8943,511,58,141672,117664
8946,511,58,141672,117661
8948,511,58,141678,117661
8951,511,58,141683,117671
8953,511,58,141683,117668
8956,510,58,141693,117659
8958,511,58,141682,117659
8961,510,58,141703,117666
8964,510,58,141700,117663
8966,510,58,141700,117661
8969,510,58,141700,117666
8971,510,58,141697,117666
8974,510,58,141704,117668
8976,510,58,141704,117667
8979,510,57,141702,117663
8981,510,58,141705,117663
8983,510,58,141712,117664
8986,510,58,141704,117661
8988,510,58,141705,117661
8991,510,58,141705,117658
8993,510,58,141705,117665
8996,510,58,141714,117662
8998,510,58,141723,117674
9000,510,58,141723,117670
9004,511,58,141733,117670
9006,510,58,141733,117671
9009,510,58,141740,117673
9011,510,58,141740,117676
9014,510,58,141744,117676
9016,510,58,141744,117686
9019,510,58,141755,117688
9021,511,58,141760,117688
9023,510,58,141771,117682
9026,511,58,141768,117694
9028,511,58,141775,117694
9031,511,57,141775,117700
9033,510,58,141781,117701
9036,511,58,141782,117701
9038,510,58,141782,117699
9040,510,58,141792,117706
9043,510,58,141798,117706
9046,510,57,141798,117711
9049,510,58,141812,117711
9051,510,58,141768,117714
9054,510,57,141768,117712
9056,510,57,141774,117714
9059,510,58,141808,117714
9061,510,57,141818,117718
9063,510,57,141812,117719
9066,508,57,141812,117717
9068,505,57,141822,117724
9071,502,57,141825,117724
9073,499,57,141830,117729
9076,496,57,141830,117725
9078,492,57,141833,117728
9080,493,57,141831,117728
9083,496,57,141844,117722
9085,501,57,141842,117731
9089,518,57,141842,117736
9091,531,57,141854,117741
9094,543,57,141847,117741
9096,554,57,141842,117737
9099,569,57,141842,117731
9101,601,57,141849,117724
9103,614,57,141850,117724
9106,630,57,141857,117737
9108,642,57,141855,117738
9111,648,57,141857,117737
9113,647,57,141868,117735
9116,637,57,141874,117736
9118,622,57,141875,117741
9120,609,57,141875,117740
9123,594,57,141875,117738
9125,560,57,141866,117738
9128,541,57,141876,117750
9131,521,57,141878,117751
9134,506,57,141882,117746
9136,480,57,141910,117751
9139,472,57,141893,117751
9141,467,57,141895,117761
9143,466,57,141899,117752
9146,466,57,141907,117763
9148,472,57,141912,117761
9151,476,57,141915,117755
9153,480,57,141915,117767
9156,482,57,141923,117767
9158,485,57,141929,117767
9160,485,57,141942,117771
9163,484,57,141931,117776
9165,484,57,141934,117769
9168,484,57,141946,117774
9170,484,57,141948,117773
9174,484,57,141944,117774
9176,484,57,141952,117775
9179,484,57,141958,117782
9181,485,57,141965,117783
9183,486,57,141965,117779
9186,486,57,141954,117776
9188,487,57,141971,117788
9191,487,56,141977,117788
9193,488,57,141981,117786
9196,489,56,141977,117796
9198,490,56,141969,117783
9200,490,57,141976,117793
9203,490,56,141968,117788
9205,491,56,141973,117784
9208,492,56,141981,117791
9210,492,56,141993,117789
9213,492,56,141995,117806
9216,493,56,141995,117795
9219,493,56,142004,117794
9221,494,56,141988,117798
9223,494,56,142005,117802
9226,495,56,141997,117792
9228,495,56,142002,117804
9231,495,56,142008,117803
9233,496,56,142014,117803
9236,496,56,142015,117808
9238,497,56,142010,117795
9240,497,56,142023,117806
9243,498,56,142019,117804
9245,499,56,142029,117809
9248,499,56,142022,117805
9250,500,56,142030,117807
9253,500,56,142037,117802
9255,500,56,142030,117802
9259,501,56,142035,117797
9261,501,56,142032,117799
9263,502,56,142027,117801
9266,502,56,142039,117799
9268,502,56,142027,117798
9271,503,56,142036,117802
9273,503,56,142032,117808
9276,504,56,142045,117803
9278,505,56,142039,117798
9280,506,56,142046,117797
9283,508,56,142042,117802
9285,510,56,142045,117806
9288,510,56,142048,117799
9290,511,56,142057,117810
9293,511,56,142048,117809
9295,511,56,142051,117818
9298,512,56,142065,117814
9300,513,56,142057,117812
9303,515,56,142060,117816
9306,518,56,142062,117811
9308,519,56,142072,117821
9311,520,56,142063,117819
9313,520,56,142074,117825
9316,520,56,142080,117827
9318,519,56,142087,117832
9320,519,56,142074,117835
9323,519,56,142082,117831
9325,519,55,142082,117827
9328,519,55,142072,117838
9330,519,55,142085,117832
9333,519,56,142075,117829
9335,518,55,142076,117834
9338,517,56,142069,117819
9340,516,55,142064,117828
9342,515,55,142056,117818
9346,515,55,142041,117819
9348,514,55,142030,117804
9351,513,55,142017,117802
9353,513,55,141980,117793
9356,513,55,141973,117782
9358,512,55,141946,117782
9360,512,55,141922,117766
9363,512,55,141898,117759
9365,513,55,141865,117735
9368,514,55,141833,117730
9370,514,55,141785,117711
9373,514,55,141785,117696
9375,514,55,141700,117679
9378,515,55,141644,117679
9380,517,55,141608,117645
9382,518,55,141548,117628
9385,520,55,141488,117612
9388,521,55,141488,117596
9391,522,55,141392,117575
9393,524,55,141326,117560
9396,525,55,141326,117535
9398,526,55,141223,117530
9400,527,55,141174,117530
9403,530,55,141139,117504
9405,531,55,141088,117490
9408,534,55,141051,117482
9410,535,55,141051,117466
9413,536,55,140971,117456
9415,538,55,140941,117450
9418,540,55,140941,117443
9420,541,55,140865,117431
9422,542,55,140838,117431
9425,544,55,140804,117418
9427,545,55,140804,117403
9431,546,55,140763,117393
9433,547,55,140710,117393
9436,548,55,140680,117388
9438,549,55,140652,117371
9440,549,55,140652,117371
9443,550,55,140605,117361
9445,550,55,140584,117361
9448,550,55,140566,117364
9450,549,55,140566,117342
9453,548,55,140542,117345
9455,548,55,140503,117345
9458,546,55,140499,117338
9460,542,55,140488,117330
9462,540,55,140488,117322
9465,536,54,140463,117330
9467,534,55,140441,117330
9470,531,54,140441,117326
9473,525,54,140437,117321
9476,522,54,140425,117322
9478,515,54,140425,117316
9480,510,54,140419,117316
9483,505,54,140410,117315
9485,502,54,140410,117314
9488,497,54,140406,117314
9490,494,54,140406,117314
9493,491,54,140393,117313
9495,485,54,140393,117311
9498,482,54,140395,117302
9500,480,54,140395,117302
9502,477,54,140402,117317
9505,473,54,140395,117308
9507,471,54,140394,117308
9510,468,54,140394,117301
9512,467,54,140386,117308
9516,466,54,140395,117308
9518,464,54,140395,117311
9520,463,54,140402,117309
9523,462,54,140406,117309
9525,461,54,140392,117315
9528,461,54,140400,117319
9530,461,54,140410,117319
9533,461,54,140410,117315
9535,461,54,140420,117316
9538,462,54,140418,117316
9540,462,54,140418,117318
9542,462,54,140425,117321
9545,463,53,140422,117321
9547,463,54,140433,117331
9550,464,54,140433,117329
9552,464,54,140426,117329
9555,465,54,140426,117331
9558,466,53,140404,117327
9560,467,53,140416,117327
9563,468,53,140416,117324
9565,469,53,140422,117317
9568,470,53,140413,117317
9570,471,54,140404,117315
9573,472,53,140404,117318
9575,473,53,140393,117318
9578,474,53,140393,117304
9580,475,53,140386,117309
9582,476,53,140382,117309
9585,477,53,140380,117306
9587,478,53,140370,117313
9590,479,53,140370,117300
9592,480,53,140367,117300
9595,481,53,140346,117300
9597,482,53,140338,117305
9600,483,53,140338,117290
9603,483,53,140334,117289
9605,485,53,140332,117289
9608,486,53,140332,117294
9610,486,53,140318,117292
9613,487,53,140318,117291
9615,488,53,140328,117288
9618,489,53,140324,117288
9620,489,53,140313,117290
9622,490,53,140314,117289
9625,490,53,140321,117287
9627,492,53,140322,117286
9630,493,53,140315,117280
9632,493,53,140315,117281
9635,493,53,140315,117284
9637,494,53,140316,117287
9639,495,53,140312,117287
9643,495,53,140331,117292
9645,496,53,140326,117285
9648,497,53,140339,117287
9650,498,53,140335,117289
9653,498,53,140343,117284
9655,498,53,140349,117292
9658,499,53,140349,117285
9660,500,53,140369,117285
9662,500,53,140361,117292
9665,500,53,140366,117300
9667,501,53,140372,117292
9670,501,52,140380,117297
9672,501,53,140389,117300
9675,501,52,140391,117293
9677,502,52,140404,117302
9679,502,52,140400,117298
9682,502,53,140418,117299
9684,503,52,140432,117311
9688,503,52,140421,117312
9690,503,52,140437,117313
9693,503,52,140444,117311
9695,504,52,140451,117311
9698,504,52,140456,117317
9700,504,52,140466,117312
9702,504,52,140457,117320
9705,505,52,140474,117325
9707,505,52,140474,117321
9710,505,52,140488,117331
9712,505,52,140500,117330
9715,505,52,140502,117332
9717,505,52,140513,117330
9719,505,52,140513,117337
9722,505,52,140523,117331
9724,505,52,140516,117329
9728,505,52,140522,117329
9730,505,52,140524,117335
9733,506,52,140520,117333
9735,506,52,140522,117332
9738,506,52,140518,117331
9740,506,52,140522,117335
9742,506,52,140521,117335
9745,506,52,140529,117336
9747,506,52,140534,117332
9750,507,52,140537,117330
9752,507,52,140545,117337
9755,507,52,140540,117329
9757,507,52,140533,117335
9759,507,52,140532,117327
9762,507,52,140533,117333
9764,507,52,140536,117330
9767,507,52,140537,117326
9769,507,52,140538,117331
9773,507,52,140548,117331
9775,507,52,140537,117324
9778,507,52,140532,117325
9780,507,52,140532,117317
9782,507,52,140533,117330
9785,507,52,140539,117336
9787,507,52,140536,117329
9790,507,52,140528,117330
9792,507,52,140537,117333
9795,507,51,140535,117327
9797,507,52,140533,117334
9799,507,51,140532,117321
9802,507,52,140532,117334
9804,507,51,140543,117337
9807,508,52,140542,117331
9809,508,52,140553,117334
9812,508,51,140541,117332
9815,508,52,140545,117335
9818,508,51,140554,117334
9820,508,51,140553,117331
9822,508,51,140543,117333
9825,508,51,140550,117338
9827,508,51,140561,117333
9830,508,51,140552,117328
9832,508,51,140549,117335
9835,508,51,140561,117328
9837,508,51,140569,117325
9839,508,51,140559,117333
9842,508,51,140559,117330
9844,508,51,140575,117334
9847,508,51,140565,117330
9849,509,51,140576,117333
9852,509,51,140582,117324
9854,509,51,140578,117338
9858,509,51,140579,117330
9860,508,51,140588,117333
9862,509,51,140590,117333
9865,509,51,140595,117328
9867,509,51,140595,117330
9870,509,51,140608,117342
9872,508,51,140608,117340
9875,508,51,140620,117344
9877,508,51,140631,117346
9879,508,51,140631,117345
9882,509,51,140644,117345
9884,509,51,140638,117345
9887,509,51,140651,117353
9889,509,51,140657,117354
9892,509,51,140657,117357
9894,509,51,140673,117356
9897,510,51,140671,117356
9900,510,51,140687,117363
9902,510,51,140684,117360
9905,509,51,140695,117364
9907,509,51,140695,117370
9910,509,51,140697,117365
9912,509,51,140701,117371
9915,509,51,140701,117360
9917,509,51,140720,117367
9919,510,51,140725,117367
9922,509,51,140731,117366
9924,509,51,140726,117365
9927,510,51,140726,117364
9929,509,51,140726,117373
9932,510,51,140740,117371
9934,510,51,140742,117371
9937,510,51,140742,117371
9939,510,51,140752,117371
9942,510,51,140763,117371
9945,510,51,140769,117374
9947,510,51,140769,117375
9950,510,51,140773,117374
9952,510,51,140772,117374
9955,510,51,140789,117374
9957,510,50,140793,117374
9959,510,51,140793,117375
9962,510,51,140793,117378
9964,511,51,140803,117378
9967,510,51,140819,117395
9969,510,51,140819,117392
9972,510,50,140825,117393
9974,510,50,140842,117393
9977,510,50,140851,117400
9979,510,50,140855,117403
9981,510,50,140855,117407
9985,509,50,140862,117412
9987,510,50,140874,117412
9990,509,50,140881,117412
9992,510,50,140881,117410
9995,510,50,140887,117418
9997,510,50,140901,117418
9999,510,50,140899,117417
10002,510,50,140909,117418
10004,510,50,140909,117418
10007,510,50,140907,117421
10009,510,50,140907,117431
10012,511,50,140924,117431
10014,511,50,140924,117428
10017,511,50,140919,117423
10019,511,50,140945,117423
10021,510,50,140945,117433
10024,510,50,140948,117431
10027,510,50,140945,117431
10030,510,50,140945,117430
10032,510,50,140943,117435
10035,511,50,140952,117435
10037,511,50,140952,117438
10039,511,50,140968,117428
10042,511,50,140957,117428
10044,511,50,140967,117435
10047,511,50,140979,117436
10049,511,50,140975,117436
10052,511,50,140975,117441
10054,511,50,140990,117450
10057,511,50,140993,117450
10059,511,50,140993,117448
10061,511,50,140999,117445
10064,511,50,140999,117445
10066,511,50,141004,117452
10070,511,50,141004,117453
10072,511,50,141006,117453
10075,510,50,141012,117453
10077,510,50,141027,117451
10079,511,50,141027,117453
10082,511,50,141021,117453
10084,511,50,141027,117459
10087,511,50,141027,117464
10089,511,50,141035,117467
10092,511,50,141048,117467
10094,510,50,141055,117468
10097,510,50,141055,117471
10099,510,50,141048,117471
10101,511,50,141050,117471
10104,511,50,141065,117474
10106,511,50,141065,117479
10109,511,50,141065,117483
10112,511,50,141075,117479
10115,511,50,141082,117479
10117,511,50,141072,117482
10119,511,50,141072,117482
10122,511,50,141077,117482
10124,511,49,141083,117482
10127,511,50,141094,117484
10129,511,50,141086,117485
10132,511,50,141086,117479
10134,511,50,141092,117480
10137,511,50,141098,117480
10139,511,50,141097,117486
10141,511,49,141095,117482
10144,510,49,141101,117484
10146,510,49,141103,117494
10149,510,50,141108,117481
10151,510,49,141108,117484
10155,511,49,141109,117484
10157,511,50,141107,117484
10159,511,49,141110,117482
10162,510,49,141112,117493
10164,510,49,141123,117483
10167,510,49,141124,117482
10169,511,49,141125,117484
10172,511,49,141141,117485
10174,511,49,141130,117486
10177,511,49,141124,117484
10179,511,49,141125,117487
10181,511,49,141130,117487
10184,511,49,141134,117489
10186,511,50,141143,117484
10189,510,49,141152,117491
10191,510,49,141156,117487
10194,510,49,141164,117493
10196,510,49,141150,117489
10199,511,49,141152,117487
10202,511,49,141149,117483
10204,511,49,141157,117486
10207,510,49,141155,117489
10209,511,49,141161,117495
10212,510,49,141162,117494
10214,510,49,141177,117490
10217,510,49,141170,117497
10219,510,49,141175,117490
10221,510,49,141171,117493
10224,510,49,141177,117484
10226,510,49,141177,117498
10229,510,49,141183,117501
10231,510,49,141185,117487
10234,510,49,141181,117494
10236,510,49,141199,117497
10238,510,49,141205,117496
10242,510,49,141205,117499
10244,510,49,141206,117496
10247,510,49,141203,117491
10249,510,49,141201,117497
10252,511,49,141216,117503
10254,510,49,141210,117506
10257,510,49,141218,117505
10259,511,49,141226,117505
10261,510,49,141224,117513
10264,510,49,141238,117511
10266,510,49,141244,117511
10269,510,49,141252,117514
10271,510,49,141256,117516
10274,510,49,141258,117520
10276,510,49,141256,117518
10278,510,49,141262,117522
10281,510,49,141264,117524
10284,510,49,141270,117532
10287,510,49,141280,117536
10289,510,49,141293,117539
10292,511,49,141299,117532
10294,511,49,141302,117537
10297,511,49,141305,117542
10299,510,49,141301,117542
10301,510,49,141317,117541
10304,511,49,141317,117545
10306,511,49,141326,117554
10309,510,49,141328,117559
10311,510,49,141333,117556
10314,510,49,141340,117546
10316,510,49,141341,117558
10318,510,49,141341,117550
10321,511,49,141346,117560
10323,511,48,141360,117557
10327,511,49,141359,117564
10329,512,49,141361,117564
10332,512,49,141361,117567
10334,513,49,141375,117567
10337,514,49,141377,117569
10339,513,49,141382,117572
10341,512,49,141383,117576
10344,513,49,141387,117574
10346,514,48,141394,117575
10349,515,49,141403,117573
10351,516,49,141393,117582
10354,517,49,141408,117581
10356,517,49,141407,117582
10358,517,49,141412,117581
10361,517,49,141426,117591
10363,516,48,141422,117586
10366,516,48,141432,117587
10369,516,49,141444,117594
10372,516,49,141444,117596
10374,514,49,141451,117595
10377,513,49,141455,117594
10379,511,48,141450,117598
10381,509,49,141463,117596
10384,509,48,141472,117605
10386,511,49,141465,117601
10389,512,48,141470,117601
10391,512,48,141472,117602
10394,511,49,141472,117603
10396,510,49,141475,117601
10398,510,49,141483,117601
10401,508,48,141497,117607
10403,508,48,141500,117601
10406,508,48,141496,117607
10408,507,48,141498,117600
10412,507,49,141504,117606
10414,507,48,141507,117606
10417,506,48,141507,117610
10419,506,48,141512,117615
10421,507,48,141507,117615
10424,507,49,141522,117616
10426,507,48,141524,117621
10429,507,48,141524,117620
10431,507,48,141538,117613
10434,507,48,141532,117613
10436,507,48,141536,117615
10438,507,48,141536,117614
10441,507,48,141541,117626
10443,507,48,141543,117626
10446,507,48,141557,117634
10448,507,48,141555,117625
10451,507,48,141555,117633
10454,507,48,141562,117635
10457,507,48,141576,117635
10459,507,48,141567,117633
10461,507,48,141567,117634
10464,507,48,141581,117642
10466,508,48,141587,117642
10469,507,48,141601,117642
10471,508,48,141590,117644
10474,508,48,141599,117650
10476,508,48,141599,117654
10478,508,48,141603,117652
10481,508,48,141608,117655
10483,508,48,141608,117656
10486,508,48,141616,117653
10488,508,48,141623,117653
10491,508,48,141632,117661
10493,508,48,141632,117653
10497,508,48,141629,117658
10499,508,48,141640,117658
10501,508,48,141643,117650
10504,509,48,141645,117658
10506,509,48,141641,117658
10509,509,48,141649,117662
10511,509,48,141649,117659
10514,509,48,141648,117665
10516,509,48,141659,117668
10518,508,48,141659,117659
10521,508,48,141665,117659
10523,509,48,141669,117658
10526,509,48,141670,117654
10528,509,48,141670,117654
10531,509,48,141669,117654
10533,509,48,141669,117659
10536,509,48,141668,117662
10539,509,48,141677,117662
10541,509,48,141686,117657
10544,509,48,141673,117669
10546,509,48,141679,117669
10549,510,48,141679,117667
10551,509,48,141683,117667
10554,509,48,141682,117667
10556,510,48,141682,117667
10558,509,48,141694,117668
10561,509,48,141691,117676
10563,510,48,141691,117669
10566,510,48,141699,117669
10568,510,48,141669,117673
10571,509,48,141669,117669
10573,509,48,141667,117669
10576,510,48,141709,117669
10578,510,48,141717,117675
10580,510,48,141713,117672
10584,510,48,141713,117669
10586,510,48,141715,117670
10589,510,48,141719,117670
10591,510,48,141717,117666
10594,510,48,141717,117673
10596,510,48,141719,117673
10598,509,48,141719,117667
10601,509,48,141722,117672
10603,509,48,141718,117672
10606,508,48,141728,117674
10608,507,47,141725,117676
10611,502,48,141725,117673
10613,498,48,141730,117664
10616,495,48,141721,117664
10618,491,48,141718,117677
10620,490,48,141718,117669
10624,492,48,141728,117670
10626,498,48,141729,117668
10629,508,48,141731,117670
10631,521,47,141728,117671
10634,531,48,141733,117671
10636,542,48,141730,117674
10638,556,48,141731,117671
10641,571,48,141737,117673
10643,600,48,141748,117672
10646,614,48,141749,117681
10648,629,48,141749,117685
10651,645,48,141754,117686
10653,647,48,141751,117686
10656,642,48,141758,117688
10658,630,48,141756,117687
10660,618,48,141774,117688
10663,602,48,141782,117696
10665,570,48,141774,117691
10669,551,48,141787,117693
10671,535,48,141787,117701
10674,520,48,141791,117701
10676,486,48,141789,117708
10678,477,48,141812,117701
10681,472,48,141794,117709
10683,469,48,141809,117712
10686,469,48,141802,117708
10688,473,48,141803,117704
10691,476,48,141811,117703
10693,480,47,141815,117711
10696,483,47,141820,117710
10698,486,48,141820,117712
10700,487,48,141826,117719
10703,487,47,141824,117717
10705,487,48,141832,117717
10708,486,48,141839,117718
10711,486,48,141838,117713
10714,486,48,141833,117722
10716,487,47,141835,117707
10718,487,48,141833,117718
10721,487,47,141837,117718
10723,488,47,141828,117714
10726,488,47,141835,117710
10728,489,48,141838,117705
10731,489,47,141835,117708
10733,490,47,141841,117712
10736,491,47,141856,117706
10738,492,47,141858,117710
10740,493,47,141854,117713
10743,493,47,141854,117711
10745,494,47,141848,117717
10748,495,47,141853,117720
10750,495,47,141859,117727
10754,496,47,141860,117719
10756,496,47,141861,117716
10758,496,47,141862,117724
10761,497,47,141874,117721
10763,497,47,141876,117730
10766,498,47,141884,117724
10768,499,47,141881,117730
10771,499,47,141891,117733
10773,500,47,141890,117732
10776,500,47,141898,117733
10778,501,47,141895,117733
10780,501,47,141898,117740
10783,501,47,141912,117744
10785,501,47,141914,117740
10788,502,47,141903,117741
10790,502,47,141911,117737
10793,503,47,141912,117735
10796,503,47,141906,117745
10798,504,47,141918,117741
10801,504,47,141922,117746
10803,504,47,141926,117754
10806,505,47,141913,117751
10808,505,47,141915,117746
10811,505,47,141927,117750
10813,505,47,141927,117739
10816,506,47,141930,117747
10818,506,47,141922,117743
10820,507,47,141933,117749
10823,507,47,141922,117744
10825,508,47,141932,117738
10828,507,47,141931,117746
10830,508,47,141928,117756
10833,508,47,141929,117746
10835,508,47,141939,117742
10838,509,47,141933,117739
