TimeStamp,ECG Data,GSR Data,PPG_Red Data,PPG_IR Data
13469,499,77,143917,120752
13459,504,77,143925,120753
13461,503,77,143923,120753
13464,501,77,143925,120755
13466,499,77,143926,120747
13469,499,77,143917,120752
3,0,0,0,0
6,504,58,0,0
8,505,58,57555,57544
11,504,58,73893,73895
13,503,58,90296,90314
15,502,58,106672,106672
18,501,59,123076,120643
20,499,59,139448,120645
23,498,59,143714,120641
25,498,59,143714,120639
28,497,59,143720,120639
30,496,60,143720,120643
33,496,60,143735,120643
35,496,60,143729,120655
37,496,60,143738,120644
40,495,60,143735,120653
43,495,60,143735,120646
46,495,60,143741,120650
48,495,61,143752,120645
51,495,61,143763,120648
53,495,61,143759,120653
55,495,61,143774,120659
58,495,61,143764,120658
60,495,61,143769,120661
63,495,61,143763,120659
65,495,61,143787,120664
68,495,62,143785,120661
70,496,62,143785,120662
73,496,62,143789,120664
75,497,62,143797,120666
77,496,62,143797,120666
80,496,62,143798,120670
82,497,62,143797,120670
86,497,62,143823,120684
88,497,62,143823,120690
91,497,62,143827,120682
93,498,62,143826,120679
95,498,63,143835,120682
98,499,63,143838,120683
100,498,63,143837,120683
103,499,63,143857,120684
105,499,63,143857,120691
108,500,63,143855,120695
110,500,63,143849,120693
113,500,63,143865,120689
115,500,63,143861,120694
117,500,63,143866,120694
120,500,63,143871,120699
122,500,63,143880,120701
125,500,63,143866,120700
128,500,63,143874,120705
131,501,63,143894,120702
133,501,63,143892,120706
135,501,63,143889,120712
138,502,64,143894,120695
140,502,63,143887,120702
143,502,64,143902,120712
145,502,64,143904,120717
148,503,64,143908,120713
150,503,64,143925,120705
153,503,64,143920,120710
155,504,64,143923,120718
157,504,64,143926,120719
160,504,64,143918,120716
162,504,64,143926,120714
165,504,64,143921,120715
167,504,64,143927,120715
171,505,64,143936,120720
173,505,64,143939,120730
175,506,64,143946,120727
178,507,64,143943,120719
180,507,64,143944,120737
183,507,64,143953,120731
185,507,64,143955,120731
188,508,64,143950,120737
190,508,64,143961,120728
193,508,64,143967,120744
195,508,64,143974,120731
197,508,64,143969,120739
200,508,64,143975,120739
202,508,64,143977,120741
205,508,64,143981,120742
207,509,64,143979,120740
210,509,64,143985,120744
212,510,64,143998,120745
215,510,65,143978,120742
218,510,65,143990,120750
220,510,65,143990,120742
223,510,64,144005,120742
225,510,64,144005,120752
228,511,65,144002,120754
230,511,65,144019,120757
233,512,65,144018,120752
235,512,65,144020,120756
237,512,65,144023,120751
240,513,65,144020,120751
242,513,65,144020,120752
245,513,65,144020,120755
247,513,65,144029,120760
250,513,65,144031,120760
252,513,65,144036,120755
254,513,65,144028,120749
258,513,65,144036,120758
260,513,65,144037,120754
263,513,65,144050,120761
265,513,65,144046,120765
268,513,65,144053,120759
270,513,65,144046,120761
273,513,65,144046,120766
275,513,65,144058,120768
277,513,65,144060,120763
280,513,65,144060,120761
282,513,65,144061,120762
285,514,65,144061,120768
287,514,65,144068,120767
290,514,65,144068,120770
292,514,65,144068,120765
294,515,65,144070,120765
297,515,65,144078,120771
300,515,65,144075,120762
303,515,65,144071,120765
305,514,65,144071,120773
308,515,65,144082,120768
310,515,65,144079,120778
313,515,65,144079,120777
315,515,65,144091,120777
317,516,65,144087,120777
320,515,65,144096,120776
322,515,65,144096,120775
325,515,65,144094,120779
327,515,65,144090,120779
330,515,65,144102,120782
332,514,65,144110,120775
334,514,65,144110,120780
337,515,65,144110,120777
339,515,65,144113,120777
343,515,65,144118,120784
345,515,65,144118,120790
348,514,65,144131,120784
350,515,65,144123,120784
353,515,65,144135,120788
355,515,65,144141,120799
357,515,65,144141,120798
360,515,66,144142,120801
362,515,65,144144,120801
365,515,65,144156,120808
367,515,65,144156,120806
370,515,65,144149,120804
372,515,65,144151,120804
374,516,65,144162,120797
377,516,65,144162,120807
379,515,65,144170,120807
382,515,65,144171,120812
385,515,65,144171,120815
388,514,65,144181,120808
390,515,65,144182,120808
393,514,65,144188,120817
395,515,65,144188,120819
397,515,65,144193,120824
400,515,65,144197,120824
402,515,66,144210,120827
405,515,65,144215,120826
407,515,65,144215,120816
410,514,65,144214,120819
412,515,65,144211,120819
414,514,66,144227,120823
417,514,65,144227,120822
419,514,65,144223,120825
422,514,65,144228,120825
424,515,65,144232,120825
428,515,65,144232,120825
430,515,66,144234,120825
433,515,65,144243,120828
435,514,65,144243,120830
437,514,65,144241,120840
440,515,66,144260,120840
442,514,65,144262,120840
445,514,65,144262,120836
447,515,65,144265,120837
450,515,66,144266,120837
452,515,66,144277,120838
454,515,65,144280,120853
457,515,65,144280,120839
459,514,65,144281,120844
462,514,65,144282,120844
464,514,66,144288,120836
467,514,65,144288,120841
470,514,65,144279,120841
473,515,66,144293,120841
475,515,66,144309,120856
477,515,65,144306,120857
480,515,65,144306,120853
482,515,66,144314,120852
485,515,66,144314,120852
487,515,66,144318,120859
490,515,66,144318,120858
492,515,66,144322,120855
494,515,66,144328,120855
497,515,66,144332,120865
499,515,65,144339,120867
502,515,66,144339,120866
504,515,65,144350,120876
507,515,66,144339,120872
509,515,66,144351,120871
513,515,66,144351,120873
515,515,65,144365,120874
517,515,66,144358,120874
520,514,65,144362,120875
522,514,65,144366,120868
525,514,66,144364,120872
527,514,66,144376,120880
530,514,66,144381,120886
532,514,65,144378,120879
534,514,66,144378,120885
537,514,66,144393,120885
539,514,65,144391,120889
542,514,66,144405,120886
544,514,65,144414,120889
547,514,66,144414,120884
549,514,66,144406,120891
552,514,66,144410,120886
555,514,66,144410,120889
557,514,66,144405,120887
560,514,66,144416,120900
562,514,66,144424,120888
565,513,66,144426,120894
567,514,66,144428,120890
570,514,66,144431,120894
572,514,65,144426,120890
574,514,66,144426,120889
577,514,66,144429,120890
579,514,65,144433,120889
582,514,65,144431,120898
584,514,66,144438,120896
587,514,66,144436,120894
589,514,66,144444,120898
592,514,66,144452,120897
594,514,66,144454,120898
596,515,66,144454,120897
600,515,66,144451,120899
602,514,66,144454,120900
605,514,66,144467,120902
607,514,66,144456,120906
610,514,66,144447,120895
612,514,66,144456,120897
614,514,66,144471,120905
617,514,66,144469,120899
619,514,65,144478,120899
622,514,66,144481,120906
624,514,66,144477,120906
627,514,66,144469,120911
629,514,66,144480,120914
632,514,66,144477,120910
634,514,66,144490,120909
636,514,66,144501,120917
640,515,66,144500,120919
642,516,66,144499,120921
645,516,66,144499,120919
647,517,66,144500,120915
650,517,66,144489,120923
652,517,66,144494,120924
654,516,66,144499,120918
657,517,66,144500,120914
659,517,66,144505,120913
662,518,66,144506,120920
664,519,66,144514,120912
667,520,66,144515,120916
669,521,66,144521,120920
672,520,66,144514,120919
674,519,66,144515,120919
676,518,66,144522,120923
679,517,66,144517,120928
681,514,66,144514,120925
685,510,66,144531,120921
687,507,66,144528,120919
690,502,66,144523,120922
692,499,66,144522,120925
694,497,66,144533,120922
697,505,66,144539,120929
699,512,66,144541,120938
702,521,66,144538,120936
704,535,66,144528,120929
707,550,66,144548,120930
709,573,66,144537,120926
712,588,66,144558,120937
714,604,66,144548,120937
716,620,66,144556,120935
719,637,66,144544,120933
721,649,66,144548,120932
724,653,66,144545,120927
727,642,66,144556,120930
730,633,66,144554,120931
732,607,66,144552,120933
734,589,66,144566,120934
737,572,66,144558,120930
739,549,66,144555,120937
742,514,66,144561,120940
744,496,66,144563,120933
747,485,66,144566,120939
749,474,66,144563,120938
752,469,66,144560,120933
754,467,66,144565,120936
756,469,66,144573,120930
759,472,66,144567,120935
761,477,66,144570,120937
764,484,66,144566,120934
766,486,66,144571,120937
770,486,66,144571,120936
772,486,66,144579,120940
774,486,66,144576,120940
777,486,66,144576,120940
779,486,66,144579,120931
782,486,66,144586,120943
784,486,66,144584,120941
787,486,66,144594,120950
789,487,66,144595,120944
792,487,66,144595,120940
794,488,66,144596,120947
796,488,66,144601,120947
799,489,66,144603,120951
801,490,66,144606,120950
804,490,66,144606,120950
806,491,66,144604,120953
809,491,66,144603,120953
812,492,66,144600,120953
814,492,66,144600,120948
817,493,66,144611,120955
819,494,66,144609,120955
822,495,66,144610,120958
824,495,66,144620,120946
827,496,66,144620,120955
829,496,66,144618,120952
832,497,66,144613,120952
834,498,66,144616,120950
836,498,66,144616,120950
839,499,66,144611,120951
841,499,66,144615,120951
844,499,66,144629,120961
846,499,66,144623,120957
849,500,66,144627,120958
851,501,66,144627,120948
854,502,66,144622,120947
857,502,66,144633,120953
859,503,66,144628,120953
862,503,66,144638,120959
864,503,66,144638,120963
867,504,66,144650,120964
869,504,66,144645,120964
872,504,66,144649,120965
874,505,66,144638,120967
876,505,66,144638,120966
879,506,66,144652,120966
881,506,66,144653,120966
884,506,66,144654,120965
886,507,66,144654,120966
889,507,66,144661,120967
891,507,66,144651,120967
893,507,66,144658,120972
897,508,66,144647,120961
899,508,66,144647,120966
902,509,66,144666,120968
904,509,66,144667,120968
907,509,66,144670,120968
909,509,66,144670,120975
912,509,66,144662,120977
914,510,66,144675,120977
916,510,66,144688,120983
919,511,66,144684,120978
921,511,66,144683,120978
924,511,66,144683,120981
926,511,66,144685,120977
929,511,66,144691,120977
931,512,66,144691,120975
933,513,66,144692,120977
936,513,66,144684,120977
939,513,66,144700,120979
942,514,66,144694,120983
944,514,66,144694,120983
947,515,66,144694,120986
949,515,66,144698,120984
952,515,66,144694,120984
954,516,66,144694,120981
956,516,66,144706,120982
959,517,66,144694,120982
961,517,66,144698,120981
964,518,66,144698,120982
966,518,66,144686,120982
969,519,66,144686,120967
971,519,66,144649,120971
973,520,66,144649,120971
976,520,66,144649,120959
978,520,66,144649,120950
982,521,66,144613,120950
984,521,66,144599,120947
987,523,66,144599,120924
989,524,66,144547,120924
992,526,66,144547,120908
994,527,66,144514,120897
996,527,66,144483,120897
999,528,66,144410,120889
1001,528,66,144365,120872
1004,530,66,144365,120835
1006,531,66,144314,120819
1009,532,66,144203,120819
1011,533,66,144148,120796
1013,534,66,144148,120762
1016,536,66,144088,120750
1018,538,66,144039,120750
1021,539,66,143945,120728
1024,541,66,143884,120727
1027,542,66,143884,120686
1029,544,66,143850,120681
1032,545,67,143756,120666
1034,546,66,143756,120638
1036,549,66,143724,120638
1039,550,66,143650,120616
1041,551,66,143628,120616
1044,553,66,143628,120594
1046,554,66,143594,120594
1049,555,66,143553,120574
1051,556,66,143525,120570
1053,557,66,143505,120566
1056,558,66,143482,120548
1058,559,66,143457,120535
1061,558,66,143422,120538
1063,558,66,143422,120527
1067,557,66,143397,120527
1069,555,66,143387,120520
1072,554,66,143393,120525
1074,552,66,143362,120517
1076,550,66,143348,120512
1079,548,66,143350,120511
1081,542,66,143333,120514
1084,539,66,143326,120508
1086,536,66,143316,120502
1089,533,66,143312,120500
1091,528,66,143305,120499
1093,523,66,143308,120507
1096,518,66,143309,120504
1098,510,66,143308,120506
1101,507,66,143313,120507
1103,503,66,143313,120502
1106,499,66,143315,120502
1108,492,66,143316,120496
1112,490,66,143313,120494
1114,487,66,143311,120500
1116,485,66,143314,120502
1119,482,66,143317,120510
1121,478,66,143314,120506
1124,476,66,143309,120511
1126,474,66,143318,120502
1129,472,66,143335,120512
1131,471,66,143335,120505
1133,470,66,143341,120504
1136,469,66,143335,120515
1138,468,66,143344,120511
1141,468,66,143339,120507
1143,467,66,143335,120511
1146,467,66,143340,120511
1148,468,66,143347,120517
1152,468,66,143346,120525
1154,468,66,143348,120512
1156,469,66,143351,120515
1159,469,66,143348,120514
1161,470,66,143349,120508
1164,471,66,143343,120508
1166,471,66,143344,120507
1169,471,66,143337,120509
1171,472,66,143326,120509
1173,473,66,143329,120509
1176,474,66,143331,120507
1178,474,66,143329,120504
1181,475,66,143325,120502
1183,476,66,143319,120497
1186,477,66,143324,120497
1188,479,66,143313,120496
1191,479,66,143301,120495
1193,480,66,143294,120495
1196,481,66,143294,120489
1199,482,65,143276,120491
1201,482,66,143273,120490
1204,483,66,143277,120485
1206,484,66,143262,120482
1209,484,66,143268,120481
1211,484,65,143260,120483
1213,485,66,143255,120482
1216,486,66,143247,120480
1218,487,66,143238,120481
1221,487,66,143235,120480
1223,488,66,143233,120471
1226,489,65,143232,120469
1228,491,66,143221,120472
1231,491,65,143223,120473
1233,492,66,143223,120475
1235,492,66,143240,120478
1239,493,65,143237,120477
1241,493,66,143237,120481
1244,494,66,143238,120485
1246,495,65,143246,120485
1249,495,65,143247,120477
1251,496,66,143244,120485
1253,496,66,143257,120484
1256,496,66,143269,120488
1258,497,66,143269,120496
1261,498,66,143286,120475
1263,499,66,143293,120493
1266,499,66,143302,120501
1268,500,66,143311,120497
1271,500,66,143321,120503
1273,502,65,143330,120506
1275,502,66,143340,120515
1278,502,66,143350,120517
1281,502,66,143351,120519
1284,502,66,143368,120523
1286,503,66,143370,120519
1289,503,66,143370,120523
1291,503,66,143387,120532
1293,503,65,143390,120532
1296,504,66,143408,120544
1298,504,66,143407,120529
1301,504,66,143416,120533
1303,504,66,143419,120543
1306,505,65,143420,120536
1308,505,66,143439,120532
1311,505,66,143439,120530
1313,505,66,143441,120533
1315,505,66,143446,120533
1318,505,66,143446,120546
1320,506,66,143454,120541
1324,506,66,143454,120541
1326,506,66,143456,120545
1329,506,66,143472,120545
1331,507,66,143477,120552
1333,507,66,143465,120549
1336,507,66,143463,120543
1338,507,65,143463,120546
1341,507,66,143459,120542
1343,507,66,143471,120548
1346,506,66,143471,120542
1348,506,66,143467,120538
1351,506,66,143468,120538
1353,506,66,143478,120551
1355,506,66,143480,120544
1358,506,66,143478,120549
1360,506,66,143478,120541
1363,506,66,143478,120550
1366,506,66,143484,120539
1369,507,66,143484,120544
1371,507,66,143475,120548
1373,508,66,143473,120548
1376,508,66,143471,120549
1378,509,66,143471,120544
1558,509,66,143743,120650
1551,509,66,143729,120637
1553,509,66,143733,120634
1555,509,66,143739,120634
1558,509,66,143743,120650
1560,509,66,143746,120639
1551,509,66,143729,120637
1553,509,66,143733,120634
1555,509,66,143739,120634
1558,509,66,143743,120650
1560,509,66,143746,120639
1563,510,66,143742,120644
1565,510,66,143758,120638
1568,510,66,143764,120637
1570,509,66,143767,120642
1572,509,66,143767,120646
1575,509,66,143773,120649
1577,509,66,143769,120649
1581,509,66,143777,120648
1583,510,66,143780,120647
1586,510,66,143782,120644
1588,510,66,143779,120647
1591,510,66,143800,120646
1593,510,66,143794,120657
1595,510,66,143794,120651
1598,510,66,143797,120651
1600,510,66,143799,120658
1603,510,66,143815,120656
1605,510,66,143810,120661
1608,510,66,143810,120663
1610,510,66,143818,120665
1612,510,66,143821,120662
1615,510,66,143822,120666
1617,510,66,143825,120663
1620,510,66,143822,120665
1623,511,66,143827,120664
1626,511,66,143827,120667
1628,511,66,143836,120670
1631,511,66,143839,120669
1633,511,66,143844,120670
1635,511,66,143849,120669
1638,511,66,143844,120680
1640,511,66,143844,120673
1643,510,66,143855,120669
1645,510,66,143852,120687
1648,509,66,143850,120677
1650,509,66,143864,120683
1652,509,66,143865,120677
1655,510,66,143863,120676
1657,509,66,143864,120678
1660,510,66,143859,120672
1662,510,66,143867,120680
1666,510,66,143876,120685
1668,511,66,143877,120679
1671,510,66,143877,120685
1673,510,66,143877,120682
1675,509,66,143887,120682
1678,509,66,143878,120685
1680,509,66,143897,120681
1683,510,66,143898,120682
1685,510,66,143901,120683
1688,511,66,143899,120691
1690,511,66,143895,120688
1692,511,66,143911,120692
1695,511,66,143905,120693
1697,511,66,143908,120695
1700,511,66,143916,120697
1702,510,66,143928,120698
1705,510,66,143929,120701
1708,510,66,143934,120708
1711,510,66,143928,120702
1713,511,66,143935,120703
1715,510,66,143946,120698
1718,511,66,143942,120705
1720,511,66,143948,120710
1723,511,66,143948,120706
1725,511,66,143951,120719
1728,511,66,143948,120721
1730,511,66,143966,120726
1732,511,66,143961,120718
1735,512,66,143959,120717
1737,511,66,143964,120723
1740,510,66,143971,120721
1742,510,66,143976,120716
1745,509,66,143980,120722
1747,510,66,143984,120730
1751,510,66,143991,120732
1753,511,66,143988,120724
1755,511,66,143999,120725
1758,511,66,143993,120732
1760,512,66,144000,120734
1763,512,66,144003,120727
1765,512,66,144000,120736
1768,511,66,144008,120729
1770,511,66,144016,120723
1772,511,66,144010,120729
1775,511,66,144010,120735
1777,511,66,144016,120736
1780,511,66,144033,120740
1782,511,66,144036,120748
1785,511,66,144042,120746
1787,511,66,144041,120751
1790,511,66,144045,120742
1793,511,66,144047,120755
1795,511,66,144051,120750
1798,511,66,144053,120756
1800,511,66,144062,120754
1803,511,66,144057,120753
1805,511,66,144062,120740
1808,510,66,144054,120748
1810,511,66,144061,120754
1812,511,66,144065,120752
1815,511,66,144074,120754
1817,511,66,144074,120752
1820,511,66,144079,120758
1822,511,66,144090,120758
1825,510,66,144090,120764
1827,511,66,144086,120761
1830,511,66,144091,120761
1832,511,66,144103,120770
1835,512,66,144101,120759
1838,512,66,144105,120764
1840,512,66,144105,120763
1843,512,66,144109,120765
1845,512,66,144119,120768
1848,512,66,144119,120764
1850,512,66,144111,120767
1852,512,66,144119,120767
1855,511,66,144136,120773
1857,511,66,144130,120770
1860,511,66,144126,120774
1862,511,66,144132,120770
1865,511,66,144138,120776
1867,511,66,144138,120771
1870,510,66,144138,120776
1872,510,66,144147,120774
1874,510,66,144152,120774
1878,510,66,144167,120788
1880,511,66,144159,120787
1883,510,66,144159,120783
1885,510,66,144153,120783
1888,511,66,144176,120783
1890,511,66,144175,120784
1892,511,66,144175,120782
1895,511,66,144176,120789
1897,511,66,144180,120789
1900,511,66,144190,120792
1902,510,66,144190,120793
1905,510,66,144187,120794
1907,511,66,144192,120794
1910,511,66,144200,120790
1912,511,66,144202,120791
1914,511,66,144202,120802
1917,510,66,144203,120800
1920,510,66,144208,120800
1923,510,66,144229,120805
1925,510,66,144222,120798
1928,510,66,144222,120803
1930,510,66,144222,120803
1932,511,66,144228,120807
1935,511,66,144229,120803
1937,511,66,144228,120803
1940,511,66,144232,120810
1942,511,66,144232,120812
1945,511,66,144238,120815
1947,511,66,144246,120815
1950,511,66,144245,120809
1952,511,67,144245,120808
1954,511,66,144255,120818
1957,511,66,144259,120822
1959,511,66,144259,120820
1963,511,66,144257,120821
1965,511,66,144271,120821
1968,510,66,144275,120824
1970,510,67,144275,120820
1972,511,66,144278,120821
1975,511,66,144289,120821
1977,510,66,144297,120829
1980,510,67,144297,120826
1982,510,67,144294,120826
1985,510,66,144305,120835
1987,510,67,144305,120831
1990,510,67,144307,120828
1992,510,66,144309,120828
1994,510,67,144313,120835
1997,511,66,144313,120835
1999,511,66,144319,120840
2002,511,67,144318,120840
2004,511,66,144328,120835
2008,511,67,144328,120834
2010,511,67,144323,120834
2012,510,66,144332,120840
2015,510,67,144332,120835
2017,510,66,144329,120844
2020,510,67,144333,120844
2022,510,67,144343,120837
2025,510,67,144343,120845
2027,510,66,144338,120845
2030,510,67,144347,120845
2032,510,67,144347,120850
2034,509,67,144353,120846
2037,509,66,144351,120845
2039,510,66,144351,120846
2042,510,67,144351,120846
2044,509,66,144354,120856
2048,509,67,144360,120856
2050,508,66,144371,120849
2052,508,67,144371,120847
2055,508,67,144363,120847
2057,508,67,144363,120850
2060,508,67,144363,120852
2062,508,67,144367,120852
2065,509,67,144374,120844
2067,509,67,144376,120852
2070,509,67,144376,120854
2072,509,67,144374,120858
2074,509,67,144375,120858
2077,509,67,144380,120860
2079,510,67,144383,120868
2082,510,67,144383,120855
2084,509,67,144403,120859
2087,510,67,144394,120865
2089,510,67,144400,120864
2092,510,67,144400,120860
2095,510,67,144395,120865
2097,510,67,144393,120865
2100,510,67,144398,120866
2102,510,67,144404,120875
2105,510,67,144410,120871
2107,508,67,144415,120870
2110,506,67,144414,120873
2112,502,67,144425,120874
2114,499,67,144425,120870
2117,497,67,144413,120870
2119,495,67,144420,120867
2122,496,67,144443,120869
2124,500,67,144430,120866
2127,506,67,144426,120870
2129,524,67,144446,120871
2131,535,67,144441,120875
2135,549,67,144433,120878
2137,561,67,144435,120870
2140,576,67,144442,120874
2142,606,67,144441,120880
2145,623,67,144439,120874
2147,635,67,144452,120876
2150,644,67,144459,120876
2152,649,67,144452,120878
2154,642,67,144462,120871
2157,633,67,144446,120878
2159,620,67,144453,120870
2162,605,67,144457,120877
2164,574,67,144448,120870
2167,556,67,144447,120874
2169,540,67,144463,120873
2171,521,67,144464,120878
2174,491,67,144466,120882
2177,479,67,144467,120882
2180,473,67,144454,120884
2182,468,67,144458,120879
2185,467,67,144460,120873
2187,472,67,144463,120876
2190,474,67,144459,120877
2192,479,67,144478,120885
2194,483,67,144470,120882
2197,487,67,144484,120881
2199,488,67,144496,120889
2202,488,67,144494,120893
2204,489,67,144481,120893
2207,489,67,144480,120890
2209,491,67,144486,120889
2211,491,67,144488,120896
2214,491,67,144494,120886
2216,491,67,144498,120893
2220,492,67,144502,120890
2222,493,67,144507,120901
2225,493,67,144500,120898
2227,494,67,144498,120905
2230,493,67,144503,120899
2232,493,67,144500,120898
2234,492,67,144490,120894
2237,491,67,144507,120902
2239,491,67,144511,120892
2242,492,67,144497,120895
2244,493,67,144515,120893
2247,493,67,144511,120899
2249,493,67,144512,120899
2251,493,67,144523,120903
2254,493,67,144522,120904
2256,493,67,144517,120905
2259,493,67,144517,120901
2262,493,67,144518,120905
2265,493,67,144522,120897
2267,493,67,144526,120897
2270,494,67,144523,120900
2272,494,67,144524,120906
2274,494,67,144530,120906
2277,494,67,144528,120904
2279,494,67,144536,120900
2282,495,67,144532,120904
2284,495,67,144525,120907
2287,496,67,144535,120900
2289,497,67,144541,120903
2291,498,67,144534,120901
2294,498,67,144536,120903
2296,499,67,144540,120907
2299,499,67,144539,120902
2301,499,67,144536,120910
2305,499,67,144542,120905
2307,499,67,144546,120908
2310,499,67,144555,120910
2312,499,67,144552,120910
2314,500,67,144547,120913
2317,500,68,144551,120911
2319,501,67,144555,120913
2322,501,67,144558,120916
2324,502,67,144562,120915
2327,503,67,144559,120903
2329,503,68,144557,120911
2331,504,68,144573,120912
2334,504,68,144564,120913
2336,504,67,144567,120919
2339,504,67,144569,120923
2341,505,67,144571,120915
2344,505,68,144570,120911
2347,506,68,144582,120913
2350,507,67,144573,120915
2352,507,68,144581,120920
2354,507,68,144578,120910
2357,508,68,144589,120922
2359,508,68,144587,120920
2362,509,68,144587,120927
2364,509,68,144591,120922
2367,509,68,144591,120917
2369,510,68,144587,120917
2371,510,67,144592,120917
2374,511,68,144608,120926
2376,511,68,144596,120919
2379,512,68,144605,120922
2381,512,68,144602,120918
2384,512,68,144601,120921
2386,513,68,144599,120913
2390,513,68,144599,120918
2392,513,68,144606,120923
2394,514,68,144595,120923
2397,515,68,144604,120925
2399,516,68,144595,120917
2402,516,68,144595,120920
2404,516,68,144598,120918
2407,517,68,144584,120918
2409,518,68,144583,120907
2411,518,68,144583,120912
2414,519,68,144567,120902
2416,520,68,144554,120902
2419,521,68,144554,120897
2421,522,68,144533,120890
2424,522,68,144533,120888
2426,524,68,144497,120874
2429,525,68,144473,120874
2432,527,68,144450,120863
2434,528,68,144450,120850
2437,530,68,144380,120835
2439,531,68,144336,120835
2442,531,68,144306,120816
2444,533,68,144258,120790
2447,534,69,144202,120773
2449,537,69,144202,120753
2451,539,69,144148,120735
2454,540,69,144045,120718
2456,541,69,143991,120718
2459,544,69,143939,120672
2461,545,69,143939,120667
2464,547,69,143893,120655
2466,549,69,143803,120655
2469,550,69,143764,120643
2471,552,69,143764,120610
2473,553,69,143726,120599
2477,554,69,143654,120586
2479,556,69,143654,120573
2482,557,69,143592,120571
2484,558,69,143558,120571
2487,558,69,143545,120554
2489,557,70,143545,120534
2491,557,69,143510,120522
2494,556,70,143465,120515
2496,556,70,143443,120515
2499,553,70,143443,120500
2501,552,70,143406,120500
2504,550,70,143388,120502
2506,546,70,143388,120486
2509,542,70,143378,120481
2511,539,70,143347,120481
2513,535,70,143351,120477
2516,529,70,143337,120470
2519,527,70,143329,120470
2522,519,70,143329,120469
2524,514,70,143320,120470
2527,511,70,143321,120470
2529,505,71,143321,120474
2531,501,70,143328,120471
2534,498,70,143319,120471
2536,494,70,143316,120472
2539,489,71,143322,120478
2541,487,70,143323,120478
2544,482,71,143323,120472
2546,479,70,143324,120471
2549,478,70,143323,120471
2551,475,70,143323,120476
2553,473,71,143338,120482
2556,472,71,143346,120482
2558,471,70,143345,120482
2562,469,71,143345,120480
2564,468,71,143350,120482
2567,468,71,143359,120482
2569,468,71,143363,120485
2571,467,71,143363,120489
2574,467,71,143365,120489
2576,467,71,143370,120490
2579,468,71,143370,120495
2581,468,71,143378,120495
2584,468,71,143383,120495
2586,468,71,143388,120496
2589,469,71,143388,120495
2591,470,71,143391,120495
2593,471,71,143386,120495
2596,471,71,143396,120500
2598,472,71,143394,120500
2601,473,71,143394,120503
2604,474,71,143405,120494
2607,474,71,143407,120494
2609,475,71,143402,120496
2611,476,71,143402,120505
2614,477,71,143411,120501
2616,478,71,143408,120501
2619,478,71,143412,120507
2621,479,71,143401,120502
2624,480,71,143404,120493
2626,481,71,143407,120503
2629,482,71,143410,120501
2631,483,71,143410,120501
2633,484,71,143404,120501
2636,485,71,143400,120493
2638,485,71,143410,120498
2641,486,71,143394,120497
2643,488,71,143414,120484
2647,488,71,143395,120497
2649,489,71,143385,120498
2651,490,71,143395,120492
2654,490,71,143396,120491
2656,492,71,143390,120490
2659,492,71,143401,120495
2661,493,71,143401,120489
2664,493,71,143409,120489
2666,494,71,143399,120494
2669,495,71,143411,120498
2671,496,71,143420,120501
2673,496,71,143414,120497
2676,496,72,143425,120496
2678,497,71,143419,120494
2681,497,72,143425,120503
2683,498,72,143440,120505
2686,498,71,143437,120507
2689,498,72,143455,120506
2691,498,72,143459,120510
2694,499,72,143465,120507
2696,500,72,143462,120510
2699,500,72,143479,120515
2701,500,71,143477,120519
2704,501,72,143484,120513
2706,502,72,143490,120515
2709,502,72,143494,120521
2711,502,72,143497,120524
2713,502,72,143508,120525
2716,502,72,143509,120525
2718,502,72,143528,120534
2721,502,72,143528,120540
2723,502,72,143530,120538
2726,502,72,143543,120541
2728,502,72,143541,120534
2731,502,72,143541,120540
2734,503,72,143544,120544
2736,503,72,143549,120541
2739,503,72,143552,120540
2741,503,72,143552,120540
2744,504,72,143552,120546
2746,504,72,143558,120542
2749,504,72,143565,120539
2751,504,72,143556,120543
2753,504,72,143556,120549
2756,504,72,143566,120548
2758,504,72,143568,120547
2761,504,72,143557,120550
2763,504,72,143550,120545
2766,504,72,143564,120549
2768,504,72,143563,120539
2770,504,72,143557,120547
2774,505,72,143551,120540
2776,504,72,143551,120540
2779,504,72,143542,120542
2781,504,72,143544,120543
2784,505,72,143548,120541
2786,505,72,143549,120535
2789,505,72,143548,120543
2791,505,72,143538,120534
2793,505,72,143545,120542
2796,505,72,143544,120536
2798,505,72,143541,120542
2801,505,72,143535,120538
2803,505,72,143539,120533
2806,505,72,143539,120539
2808,505,72,143533,120536
2810,505,72,143540,120534
2813,505,72,143529,120538
2816,505,72,143534,120541
2819,505,72,143538,120539
2821,504,72,143534,120546
2824,505,72,143547,120537
2826,505,72,143544,120540
2829,505,73,143550,120543
2831,505,72,143549,120546
2833,505,72,143549,120542
2836,505,72,143549,120544
2838,505,72,143545,120546
2841,505,72,143550,120552
2843,505,72,143552,120546
2846,505,72,143559,120552
2848,505,72,143566,120556
2850,506,72,143572,120562
2853,506,73,143577,120559
2855,506,73,143570,120557
2859,506,72,143572,120557
2861,506,72,143578,120546
2864,506,72,143596,120562
2866,506,72,143580,120560
2869,507,73,143586,120559
2871,507,73,143598,120568
2873,507,73,143599,120562
2876,506,72,143607,120565
2878,507,72,143602,120565
2881,507,73,143620,120564
2883,507,72,143617,120567
2886,507,73,143617,120570
2888,506,73,143621,120566
2890,507,72,143633,120566
2893,507,72,143641,120581
2895,507,73,143650,120569
2898,507,73,143645,120573
2900,507,73,143644,120576
2904,507,73,143642,120580
2906,507,73,143653,120576
2909,507,73,143653,120578
2911,507,73,143669,120581
2913,507,73,143672,120581
2916,507,73,143695,120589
2918,507,73,143698,120585
2921,507,73,143698,120586
2923,507,73,143699,120591
2926,508,73,143712,120591
2928,507,72,143712,120599
2930,507,73,143712,120596
2933,508,73,143720,120596
2935,508,73,143723,120596
2938,508,73,143733,120605
2940,508,73,143732,120602
2944,508,73,143732,120606
2946,509,73,143752,120607
2949,509,73,143762,120607
2951,512,73,143759,120616
2953,512,73,143759,120612
2956,512,73,143762,120617
2958,512,73,143771,120617
2961,511,73,143789,120621
2963,511,73,143792,120625
2966,512,73,143788,120631
2968,513,73,143788,120630
2970,514,73,143798,120633
2973,516,73,143811,120632
2975,516,73,143812,120632
2978,516,73,143822,120632
2980,515,73,143822,120636
2983,515,73,143831,120634
2985,515,73,143830,120634
2989,515,73,143838,120632
2991,515,73,143843,120634
2993,514,73,143843,120641
2996,514,73,143849,120645
2998,512,73,143849,120650
3001,511,73,143857,120648
3003,511,73,143865,120648
3006,511,73,143865,120652
3008,510,73,143866,120653
3010,510,73,143872,120653
3013,508,73,143872,120653
3015,508,73,143880,120664
3018,508,73,143881,120655
3020,507,73,143881,120652
3023,506,73,143898,120658
3025,506,73,143895,120658
3028,505,73,143908,120663
3031,505,73,143908,120669
3033,505,73,143919,120674
3036,505,73,143919,120674
3038,504,73,143933,120675
3041,504,73,143939,120674
3043,505,73,143939,120668
3046,505,73,143934,120673
3048,505,73,143941,120673
3050,505,73,143948,120680
3053,505,73,143948,120681
3055,505,73,143957,120684
3058,505,73,143945,120684
3060,505,73,143958,120684
3063,506,73,143958,120687
3065,506,73,143968,120687
3068,506,73,143973,120693
3070,506,73,143973,120693
3073,506,73,143974,120697
3076,506,73,143980,120697
3078,506,73,143982,120691
3081,506,73,143982,120693
3083,506,73,143986,120697
3086,507,73,143981,120697
3088,507,73,143992,120694
3090,507,73,143978,120700
3093,508,73,143978,120697
3095,507,73,143993,120698
3098,507,73,143987,120698
3100,507,73,143994,120696
3103,507,74,143994,120696
3105,507,73,144000,120689
3108,507,73,143993,120689
3110,507,73,143997,120695
3112,507,73,143986,120699
3116,507,73,143986,120688
3118,507,74,144003,120693
3121,507,74,143995,120693
3123,507,74,143998,120699
3126,507,73,143998,120693
3128,507,73,144006,120692
3130,508,73,144004,120692
3133,507,74,144001,120695
3135,507,74,144001,120703
3138,507,73,144006,120696
3140,508,74,144008,120696
3143,508,74,144008,120696
3145,508,74,144013,120702
3148,509,74,144013,120701
3150,508,74,144014,120704
3152,509,74,144011,120704
3155,508,74,144017,120706
3158,508,74,144030,120705
3161,508,74,144023,120709
3163,509,74,144032,120707
3166,509,74,144035,120705
3168,509,74,144036,120715
3170,509,74,144036,120719
3173,509,74,144041,120719
3175,509,74,144047,120714
3178,509,74,144069,120722
3180,509,74,144068,120711
3183,510,74,144064,120713
3185,510,74,144050,120715
3188,510,74,144054,120723
3190,510,74,144068,120715
3192,510,74,144059,120720
3195,510,74,144071,120720
3197,510,74,144068,120725
3201,510,74,144069,120723
3203,510,74,144077,120721
3206,510,74,144076,120722
3208,510,74,144080,120723
3210,509,74,144089,120723
3213,509,74,144080,120729
3215,509,74,144095,120724
3218,509,74,144092,120730
3220,509,74,144095,120724
3223,509,74,144105,120725
3225,509,74,144094,120730
3228,509,74,144102,120729
3230,509,74,144108,120727
3232,509,74,144098,120730
3235,509,74,144101,120731
3237,509,74,144103,120724
3240,508,74,144112,120728
3243,508,74,144116,120731
3246,508,74,144129,120736
3248,508,74,144126,120738
3250,508,74,144135,120740
3253,509,74,144136,120739
3255,508,74,144139,120739
3258,508,74,144136,120741
3260,508,74,144145,120740
3263,508,74,144140,120746
3265,509,74,144149,120746
3268,509,74,144148,120746
3270,510,74,144153,120743
3272,510,74,144162,120748
3275,510,74,144168,120751
3277,510,74,144175,120753
3280,510,74,144175,120749
3282,510,74,144185,120755
3286,510,74,144174,120757
3288,510,74,144184,120759
3290,510,74,144188,120756
3293,510,74,144188,120761
3295,510,74,144195,120764
3298,510,74,144207,120758
3300,510,74,144210,120764
3303,510,74,144213,120765
3305,511,74,144223,120769
3308,511,74,144223,120771
3310,511,74,144229,120776
3312,511,74,144230,120771
3315,511,74,144229,120772
3317,511,74,144226,120774
3320,511,74,144244,120780
3322,511,75,144248,120773
3325,511,75,144252,120785
3328,511,75,144259,120784
3330,511,75,144264,120786
3333,511,75,144269,120780
3335,511,75,144280,120793
3338,511,75,144269,120799
3340,511,75,144274,120792
3343,511,75,144273,120796
3345,511,75,144277,120795
3348,511,75,144296,120788
3350,511,75,144295,120793
3352,511,75,144297,120802
3355,511,75,144302,120803
3357,511,75,144301,120807
3360,511,75,144303,120803
3362,511,75,144298,120805
3365,511,75,144301,120804
3367,511,75,144319,120803
3369,511,75,144316,120806
3373,511,75,144325,120805
3375,511,75,144321,120801
3378,511,75,144320,120803
3380,511,75,144322,120803
3383,511,75,144325,120807
3385,511,75,144331,120806
3388,512,75,144335,120805
3390,511,75,144342,120805
3392,511,75,144331,120805
3395,511,75,144338,120801
3397,511,75,144341,120804
3400,511,75,144341,120807
3402,511,75,144338,120811
3405,511,75,144345,120811
3407,511,75,144350,120817
3409,511,75,144348,120804
3412,511,75,144348,120811
3415,511,75,144358,120807
3418,511,75,144358,120807
3420,511,75,144355,120809
3423,510,75,144355,120811
3425,511,75,144363,120816
3428,511,75,144363,120810
3430,511,75,144362,120819
3432,511,75,144369,120817
3435,511,75,144381,120816
3437,511,75,144382,120819
3440,511,75,144383,120820
3442,511,75,144385,120819
3445,511,75,144385,120824
3447,511,75,144383,120821
3449,511,75,144383,120821
3452,511,75,144397,120827
3454,511,75,144391,120825
3458,511,75,144396,120823
3460,511,75,144396,120830
3463,511,75,144403,120821
3465,512,76,144399,120828
3468,512,75,144399,120826
3470,511,75,144415,120831
3472,512,75,144412,120831
3475,511,76,144421,120841
3477,511,76,144421,120829
3480,511,76,144427,120831
3482,511,75,144406,120831
3485,511,76,144425,120828
3487,511,76,144422,120834
3489,511,76,144422,120837
3492,511,76,144436,120837
3494,511,76,144432,120837
3497,511,76,144443,120842
3500,511,76,144443,120836
3503,511,76,144434,120840
3505,511,76,144444,120840
3508,512,76,144455,120844
3510,512,76,144457,120842
3512,512,76,144457,120844
3515,512,76,144451,120841
3517,512,76,144448,120841
3520,511,76,144456,120839
3522,511,76,144460,120843
3525,511,76,144453,120844
3527,511,76,144453,120844
3529,511,76,144456,120842
3532,511,76,144454,120850
3534,511,76,144468,120850
3537,511,76,144463,120848
3539,511,76,144463,120845
3543,509,76,144473,120849
3545,508,76,144476,120849
3548,505,76,144471,120856
3550,498,76,144471,120859
3552,495,76,144482,120853
3555,494,76,144477,120858
3557,495,76,144477,120852
3560,499,76,144488,120853
3562,505,76,144484,120853
3565,519,76,144484,120859
3567,527,76,144494,120859
3569,540,76,144500,120866
3572,564,76,144500,120864
3574,582,76,144500,120858
3577,596,76,144510,120858
3579,613,76,144513,120862
3582,629,76,144515,120866
3585,649,77,144515,120870
3588,654,76,144515,120873
3590,652,76,144533,120873
3592,642,77,144533,120872
3595,615,76,144533,120877
3597,596,77,144533,120879
3600,581,77,144533,120879
3602,563,76,144541,120878
3605,531,77,144541,120877
3607,517,77,144544,120877
3609,499,77,144537,120881
3612,478,77,144537,120877
3614,470,77,144546,120879
3617,467,77,144549,120879
3619,466,77,144544,120877
3622,471,77,144544,120882
3624,475,77,144545,120874
3628,480,77,144545,120874
3630,485,77,144545,120888
3632,487,77,144558,120888
3635,488,77,144562,120888
3637,487,77,144562,120885
3640,487,77,144561,120883
3642,487,77,144562,120892
3645,487,77,144563,120892
3647,486,77,144569,120892
3649,486,77,144569,120892
3652,486,77,144565,120892
3654,487,77,144565,120883
3657,488,77,144564,120887
3659,488,77,144561,120882
3662,489,77,144573,120882
3664,489,77,144580,120886
3667,490,77,144580,120892
3670,490,77,144576,120885
3672,491,77,144579,120886
3675,491,77,144582,120888
3677,492,77,144582,120893
3680,492,77,144579,120894
3682,493,76,144582,120896
3685,493,77,144587,120896
3687,493,77,144587,120901
3689,494,77,144593,120892
3692,495,77,144594,120890
3694,496,77,144596,120889
3697,496,77,144594,120894
3699,497,77,144594,120891
3702,497,77,144603,120891
3704,498,77,144596,120902
3707,499,77,144620,120893
3709,499,77,144592,120897
3712,499,77,144602,120898
3715,499,77,144603,120896
3717,500,77,144615,120895
3720,500,77,144619,120902
3722,500,77,144627,120905
3725,500,77,144621,120905
3727,502,77,144615,120905
3729,503,77,144609,120904
3732,505,77,144620,120898
3734,507,77,144619,120901
3737,507,77,144623,120905
3739,508,77,144640,120907
3742,507,77,144647,120911
3744,508,77,144638,120918
3747,509,77,144654,120912
3749,510,77,144645,120906
3751,511,77,144642,120911
3755,513,77,144641,120918
3757,515,77,144643,120915
3760,515,77,144639,120920
3762,515,77,144651,120916
3765,515,77,144665,120920
3767,514,77,144660,120911
3769,514,77,144661,120920
3772,514,77,144667,120918
3774,514,77,144664,120915
3777,513,77,144656,120918
3779,513,77,144652,120911
3782,512,77,144658,120913
3784,512,77,144656,120906
3787,512,77,144661,120921
3789,512,77,144660,120913
3791,511,77,144668,120911
3794,511,77,144664,120913
3796,509,77,144673,120914
3800,509,77,144661,120913
3802,508,77,144666,120911
3805,508,77,144669,120913
3807,508,77,144665,120914
3809,508,77,144660,120911
3812,508,77,144664,120918
3814,508,77,144659,120907
3817,508,77,144669,120904
3819,508,77,144677,120911
3822,509,78,144682,120916
3824,509,77,144668,120911
3827,510,78,144664,120903
3829,510,77,144660,120906
3831,511,77,144658,120897
3834,511,77,144648,120904
3836,512,77,144638,120894
3840,512,77,144627,120894
3842,513,77,144616,120896
3845,513,77,144604,120893
3847,514,78,144594,120887
3849,515,77,144576,120879
3852,517,77,144556,120869
3854,517,77,144532,120858
3857,518,77,144517,120854
3859,519,77,144483,120838
3862,520,77,144445,120833
3864,521,78,144408,120820
3867,523,78,144370,120801
3869,524,78,144317,120779
3871,525,78,144276,120764
3874,526,77,144213,120752
3876,528,77,144171,120736
3879,529,77,144124,120721
3881,531,78,144068,120700
3885,533,78,144004,120677
3887,534,78,143966,120665
3889,536,78,143918,120651
3892,538,78,143860,120630
3894,540,78,143810,120616
3897,541,78,143772,120599
3899,542,78,143730,120589
3902,544,78,143695,120583
3904,546,78,143655,120567
3907,548,78,143618,120552
3909,548,78,143595,120542
3911,550,78,143557,120528
3914,552,78,143541,120516
3916,553,78,143519,120502
3919,553,78,143484,120501
3921,555,78,143457,120494
3924,555,78,143434,120479
3927,555,78,143410,120472
3929,555,78,143395,120471
3932,553,78,143379,120457
3934,552,78,143353,120449
3937,549,78,143339,120443
3939,547,78,143332,120437
3942,545,78,143332,120443
3944,542,78,143309,120434
3947,540,78,143297,120434
3949,533,78,143293,120431
3951,530,78,143298,120424
3954,526,78,143284,120417
3956,521,78,143281,120423
3959,517,78,143276,120426
3961,509,78,143285,120436
3964,506,78,143285,120425
3966,501,78,143279,120423
3969,499,78,143282,120423
3972,491,78,143289,120432
3974,489,78,143287,120425
3977,484,78,143288,120434
3979,482,78,143293,120431
3982,479,78,143302,120438
3984,476,78,143305,120438
3987,474,78,143305,120441
3989,472,78,143320,120446
3991,471,78,143322,120446
3994,468,78,143330,120451
3996,467,78,143333,120454
3999,466,78,143333,120451
4001,465,78,143336,120452
4004,465,78,143349,120452
4006,464,78,143349,120463
4008,464,78,143349,120457
4012,464,78,143358,120458
4014,464,78,143365,120458
4017,464,78,143379,120466
4019,465,78,143381,120459
4022,465,78,143381,120465
4024,465,78,143375,120465
4027,466,78,143376,120474
4029,467,78,143378,120461
4031,467,78,143378,120464
4034,468,78,143375,120463
4036,469,78,143371,120463
4039,470,78,143381,120464
4041,471,78,143378,120462
4044,471,78,143370,120460
4046,472,78,143370,120458
4048,473,78,143372,120462
4051,474,78,143362,120460
4054,475,78,143368,120460
4057,476,78,143351,120451
4059,477,78,143351,120457
4062,478,78,143344,120445
4064,479,78,143335,120445
4067,480,78,143340,120448
4069,481,78,143340,120440
4071,482,78,143328,120439
4074,484,78,143318,120440
4076,484,78,143318,120436
4079,485,78,143306,120436
4081,486,78,143301,120436
4084,486,78,143302,120433
4086,488,78,143302,120431
4088,488,78,143301,120431
4091,489,78,143288,120425
4093,489,78,143292,120425
4097,490,78,143292,120433
4099,491,78,143286,120433
4102,491,78,143276,120434
4104,493,78,143276,120431
4107,493,78,143291,120430
4109,494,78,143301,120430
4111,495,78,143297,120433
4114,496,78,143297,120434
4116,496,78,143315,120442
4119,497,77,143309,120442
4121,497,78,143309,120435
4124,498,78,143309,120442
4126,498,78,143332,120442
4128,498,77,143338,120451
4131,499,77,143338,120458
4133,500,78,143348,120455
4136,500,78,143363,120455
4139,500,78,143368,120462
4142,501,77,143368,120462
4144,501,77,143379,120472
4147,501,78,143394,120472
4149,501,77,143394,120478
4151,502,77,143404,120480
4154,502,77,143414,120484
4156,503,78,143414,120492
4159,503,78,143432,120490
4161,503,77,143439,120499
4164,504,78,143440,120499
4166,504,77,143469,120503
4168,504,78,143469,120505
4171,504,78,143472,120505
4173,504,77,143474,120512
4176,504,77,143474,120511
4178,504,78,143486,120509
4182,504,78,143487,120509
4184,504,77,143494,120512
4187,505,78,143494,120514
4189,505,77,143497,120511
4191,506,77,143499,120511
4194,506,77,143508,120512
4196,506,77,143514,120522
4199,506,77,143514,120522
4201,506,77,143525,120522
4204,506,77,143503,120520
4206,506,77,143519,120526
4208,506,77,143519,120525
4211,506,77,143520,120525
4213,507,77,143515,120525
4216,507,77,143517,120530
4218,507,77,143508,120522
4221,507,77,143519,120522
4224,506,77,143525,120529
4227,507,77,143528,120524
4229,507,77,143528,120522
4231,507,77,143515,120522
4234,507,77,143525,120525
4236,507,77,143515,120528
4239,507,77,143526,120529
4241,507,77,143536,120535
4244,507,77,143526,120528
4246,507,77,143528,120528
4248,507,77,143527,120528
4251,508,77,143531,120532
4253,508,77,143532,120537
4256,508,77,143526,120533
4258,507,77,143543,120532
4261,507,77,143531,120530
4263,507,77,143535,120530
4267,507,77,143550,120532
4269,507,77,143544,120530
4271,507,77,143541,120532
4274,507,77,143547,120531
4276,508,77,143537,120536
4279,508,77,143549,120534
4281,508,77,143553,120532
4284,508,77,143561,120530
4286,509,77,143570,120530
4288,509,77,143570,120541
4291,509,77,143572,120539
4293,509,77,143568,120544
4296,509,77,143582,120550
4298,509,77,143573,120550
4301,509,77,143585,120545
4303,509,77,143581,120556
4306,508,77,143589,120556
4308,509,77,143600,120546
4311,508,77,143615,120553
4314,508,77,143618,120552
4316,508,77,143623,120568
4319,508,77,143631,120569
4321,508,77,143624,120566
4324,508,77,143633,120566
4326,508,77,143627,120568
4328,508,77,143636,120576
4331,508,77,143651,120564
4333,508,77,143657,120577
4336,508,77,143668,120574
4338,508,77,143671,120581
4341,508,77,143679,120580
4343,508,77,143677,120580
4346,509,77,143682,120581
4348,509,76,143676,120582
4350,509,76,143689,120588
4354,509,76,143703,120588
4356,509,76,143713,120588
4359,509,76,143704,120593
4361,509,76,143714,120595
4364,509,76,143714,120594
4366,509,76,143725,120599
4368,509,76,143735,120604
4371,509,76,143738,120596
4373,509,76,143741,120610
4376,509,76,143745,120605
4378,509,76,143754,120609
4381,509,76,143763,120609
4383,509,76,143773,120613
4386,509,76,143776,120622
4388,509,76,143778,120619
4390,510,76,143788,120625
4393,510,76,143797,120626
4396,510,76,143809,120634
4399,510,76,143807,120631
4401,509,76,143815,120636
4404,509,76,143820,120644
4406,509,76,143830,120642
4408,509,76,143830,120645
4411,509,76,143837,120649
4413,509,76,143846,120649
4416,509,76,143855,120653
4418,509,76,143856,120650
4421,509,76,143859,120655
4423,510,76,143861,120652
4426,510,76,143873,120660
4428,510,76,143873,120654
4430,511,76,143876,120659
4433,511,76,143875,120659
4435,511,76,143892,120661
4439,511,76,143890,120661
4441,511,76,143893,120660
4444,511,76,143900,120666
4446,511,76,143905,120668
4448,511,76,143908,120670
4451,510,76,143912,120677
4453,510,76,143912,120663
4456,510,76,143920,120663
4458,510,76,143920,120676
4461,510,76,143922,120674
4463,510,76,143938,120672
4466,511,76,143935,120681
4468,511,76,143948,120676
4470,511,76,143938,120681
4473,511,76,143948,120685
4475,511,75,143955,120683
4478,511,76,143955,120685
4481,511,75,143959,120690
4484,511,76,143974,120690
4486,511,75,143983,120700
4488,511,75,143975,120691
4491,511,75,143975,120691
4493,511,75,143984,120689
4496,511,75,143993,120688
4498,511,75,143981,120693
4501,511,75,143981,120700
4503,511,75,143991,120704
4506,511,75,144001,120704
4508,511,75,144009,120702
4510,511,75,144006,120698
4513,510,75,144003,120700
4515,509,75,144003,120694
4518,509,75,144008,120701
4520,510,75,144015,120702
4524,510,75,144015,120703
4526,510,75,144017,120707
4528,510,75,144016,120707
4531,511,75,144031,120709
4533,512,75,144031,120713
4536,513,75,144030,120703
4538,513,75,144041,120703
4541,514,75,144034,120710
4543,513,75,144029,120704
4546,513,75,144037,120710
4548,512,75,144040,120708
4550,513,75,144043,120708
4553,515,75,144044,120711
4555,515,75,144044,120713
4558,516,75,144049,120711
4560,516,75,144052,120711
4563,516,75,144062,120710
4566,516,75,144061,120715
4568,515,75,144061,120719
4571,516,75,144067,120721
4573,516,75,144073,120721
4576,515,75,144073,120729
4578,514,75,144073,120723
4581,513,75,144075,120725
4583,512,75,144074,120725
4586,510,75,144091,120726
4588,509,75,144083,120730
4590,509,75,144083,120727
4593,510,74,144089,120726
4595,511,75,144089,120726
4598,511,74,144098,120727
4600,511,74,144098,120740
4603,510,74,144098,120728
4605,510,74,144105,120728
4608,509,74,144113,120738
4611,508,74,144109,120737
4613,508,74,144112,120737
4616,508,74,144116,120737
4618,507,74,144116,120745
4621,507,74,144128,120745
4623,506,74,144128,120746
4626,506,74,144134,120747
4628,507,74,144134,120747
4630,506,74,144142,120749
4633,506,74,144142,120749
4635,506,74,144151,120749
4638,507,74,144151,120758
4640,507,74,144155,120757
4643,507,74,144157,120757
4645,507,74,144157,120762
4647,508,74,144168,120763
4651,508,74,144178,120763
4653,508,74,144186,120759
4656,508,74,144186,120773
4658,508,74,144189,120773
4661,508,74,144189,120763
4663,508,74,144191,120771
4666,509,74,144198,120771
4668,508,74,144198,120775
4670,508,74,144191,120773
4673,507,74,144198,120777
4675,507,74,144198,120775
4678,507,74,144213,120772
4680,507,74,144212,120776
4683,508,74,144216,120776
4685,508,74,144222,120764
4687,508,74,144222,120774
4690,508,73,144218,120774
4692,508,74,144225,120779
4696,507,74,144225,120778
4698,507,73,144220,120784
4701,508,74,144225,120784
4703,508,73,144236,120782
4706,508,74,144236,120788
4708,508,73,144237,120790
4710,508,73,144241,120790
4713,508,73,144243,120791
4715,508,73,144255,120794
4718,508,73,144255,120795
4720,509,73,144266,120797
4723,509,73,144278,120797
4725,509,73,144275,120794
4727,509,73,144275,120798
4730,509,73,144271,120797
4732,509,73,144274,120797
4736,509,73,144286,120804
4738,509,73,144289,120805
4741,509,73,144294,120803
4743,510,73,144303,120809
4746,510,73,144303,120807
4748,510,73,144307,120816
4750,510,73,144307,120811
4753,510,73,144307,120817
4755,510,73,144298,120817
4758,510,73,144316,120815
4760,510,73,144320,120816
4763,510,73,144317,120817
4765,509,73,144332,120818
4767,509,73,144324,120818
4770,509,72,144326,120817
4772,509,73,144331,120823
4775,509,73,144348,120823
4777,509,73,144348,120823
4781,509,72,144344,120823
4783,510,73,144341,120823
4786,510,73,144356,120826
4788,510,72,144353,120836
4790,510,73,144362,120827
4793,509,72,144363,120828
4795,509,72,144358,120833
4798,508,72,144364,120834
4800,509,72,144375,120833
4803,509,72,144370,120832
4805,509,72,144377,120828
4807,509,72,144375,120830
4810,509,72,144376,120830
4812,509,72,144377,120835
4815,508,72,144382,120835
4817,508,72,144389,120840
4820,508,72,144391,120841
4823,509,72,144390,120836
4826,509,72,144387,120841
4828,509,72,144392,120837
4830,509,72,144394,120837
4833,509,72,144394,120839
4835,510,72,144393,120842
4838,510,72,144399,120841
4840,510,72,144403,120839
4843,510,72,144403,120842
4845,510,72,144401,120843
4847,509,72,144415,120843
4850,509,72,144413,120840
4852,509,72,144415,120841
4855,509,72,144428,120841
4857,509,72,144419,120846
4860,509,72,144426,120852
4862,509,72,144424,120849
4866,509,72,144427,120849
4868,508,72,144430,120855
4870,508,72,144435,120853
4873,509,72,144439,120845
4875,509,72,144445,120850
4878,509,72,144436,120859
4880,509,72,144440,120859
4883,510,72,144451,120849
4885,509,72,144449,120860
4887,509,71,144450,120859
4890,510,71,144444,120853
4892,510,71,144451,120854
4895,510,72,144453,120858
4897,510,71,144457,120854
4900,510,71,144462,120861
4902,510,71,144474,120858
4905,510,71,144478,120863
4908,510,71,144471,120858
4910,509,71,144477,120874
4913,509,71,144478,120866
4915,509,71,144484,120866
4918,509,71,144471,120863
4920,509,71,144484,120869
4923,510,71,144479,120860
4925,510,71,144476,120861
4927,511,71,144485,120865
4930,510,71,144485,120869
4932,510,71,144493,120870
4935,510,71,144493,120870
4937,510,71,144492,120874
4940,510,71,144503,120878
4942,510,71,144502,120878
4945,510,71,144516,120874
4947,510,71,144507,120873
4950,510,71,144511,120875
4953,510,71,144513,120882
4955,510,71,144513,120881
4958,510,71,144520,120878
4960,508,71,144517,120882
4963,503,71,144510,120882
4965,499,71,144532,120876
4967,495,71,144521,120862
4970,492,71,144528,120885
4972,493,71,144525,120874
4975,494,71,144531,120886
4977,500,71,144529,120886
4980,507,71,144524,120887
4982,526,71,144536,120890
4985,539,71,144534,120882
4987,550,71,144531,120875
4989,567,71,144533,120886
4993,594,71,144538,120888
4995,610,71,144536,120881
4998,624,71,144536,120883
5000,640,71,144542,120884
5003,647,71,144533,120884
5005,651,71,144548,120887
5007,646,71,144548,120882
5010,628,71,144545,120881
5012,614,71,144554,120888
5015,600,71,144554,120885
5017,581,71,144554,120878
5020,548,71,144555,120890
5022,528,71,144563,120883
5025,511,71,144563,120889
5027,492,71,144555,120881
5029,476,71,144559,120887
5032,470,71,144568,120882
5035,466,71,144559,120881
5038,466,71,144569,120882
5040,472,70,144568,120888
5043,475,71,144568,120887
5045,480,71,144569,120884
5047,483,70,144562,120884
5050,485,71,144580,120898
5052,485,70,144576,120892
5055,485,70,144575,120896
5057,484,70,144575,120899
5060,484,70,144580,120898
5062,484,70,144576,120894
5065,484,70,144576,120889
5067,484,70,144577,120901
5069,485,70,144591,120901
5072,485,70,144580,120890
5074,485,70,144580,120899
5078,486,70,144586,120895
5080,486,70,144588,120895
5083,487,70,144590,120895
5085,488,70,144590,120890
5087,488,70,144590,120899
5090,489,70,144592,120902
5092,490,70,144594,120902
5095,490,70,144602,120905
5097,490,70,144602,120902
5100,491,70,144603,120903
5102,492,70,144603,120903
5105,492,70,144612,120895
5107,493,70,144604,120898
5109,493,70,144604,120904
5112,494,70,144613,120905
5114,494,70,144612,120905
5117,494,70,144607,120908
5120,495,70,144607,120900
5123,496,70,144617,120898
5125,496,70,144609,120898
5127,497,70,144620,120901
5130,497,70,144617,120908
5132,498,70,144622,120908
5135,498,70,144617,120901
5137,498,70,144617,120914
5140,499,69,144623,120912
5142,499,70,144622,120912
5145,499,69,144632,120915
5147,500,69,144632,120909
5149,501,70,144632,120908
5152,501,69,144636,120908
5154,501,70,144649,120912
5157,501,69,144640,120918
5159,501,69,144640,120910
5163,502,69,144643,120914
5165,502,69,144640,120914
5167,503,69,144644,120911
5170,504,69,144644,120904
5172,504,69,144647,120912
5175,504,69,144647,120912
5177,504,69,144655,120908
5180,505,69,144655,120914
5182,505,69,144659,120914
5185,505,69,144655,120910
5187,506,69,144655,120910
5189,506,69,144656,120911
5192,507,69,144665,120911
5194,507,69,144658,120913
5197,507,69,144658,120912
5199,507,69,144668,120919
5202,508,69,144672,120919
5204,508,69,144672,120919
5207,508,69,144667,120928
5210,508,69,144667,120909
5212,508,69,144668,120914
5215,509,69,144674,120914
5217,509,69,144670,120916
5220,509,69,144670,120916
5222,509,69,144669,120916
5225,510,69,144669,120919
5227,511,69,144672,120916
5229,511,69,144674,120916
5232,511,69,144679,120918
5234,512,69,144672,120921
5237,513,69,144672,120918
5239,513,69,144672,120920
5242,514,69,144653,120920
5244,514,69,144649,120913
5246,515,69,144649,120909
5250,515,69,144649,120898
5252,515,69,144638,120898
5255,515,69,144623,120905
5257,516,69,144617,120900
5260,516,69,144602,120885
5262,517,69,144583,120877
5265,518,69,144520,120865
5267,518,69,144498,120864
5269,519,69,144498,120838
5272,521,69,144474,120827
5274,521,69,144441,120827
5277,522,69,144396,120809
5279,522,69,144339,120791
5282,523,69,144310,120780
5284,525,69,144246,120759
5286,526,69,144203,120734
5289,528,69,144153,120722
5292,532,69,144093,120700
5295,533,69,144000,120689
5297,535,68,144000,120659
5300,536,69,143941,120659
5302,540,69,143888,120634
5305,542,69,143850,120616
5307,543,69,143792,120607
5309,545,69,143748,120588
5312,546,69,143717,120574
5314,552,69,143670,120558
5317,554,69,143644,120549
5319,556,69,143611,120536
5322,558,69,143570,120528
5324,560,69,143539,120510
5326,562,69,143511,120502
5329,563,68,143484,120487
5331,564,69,143469,120476
5335,564,69,143428,120469
5337,565,69,143418,120459
5340,565,69,143400,120459
5342,566,69,143380,120444
5345,566,68,143363,120447
5347,565,69,143348,120445
5349,563,69,143335,120439
5352,559,68,143317,120433
5354,552,69,143300,120439
5357,548,68,143294,120430
5359,545,69,143302,120423
5362,541,69,143292,120417
5364,537,69,143282,120415
5366,532,69,143288,120415
5369,523,69,143283,120421
5371,519,68,143271,120418
5374,515,68,143266,120407
5377,511,69,143258,120417
5380,506,68,143269,120413
5382,498,69,143262,120421
5385,494,68,143268,120416
5387,490,68,143265,120422
5389,486,68,143277,120425
5392,483,68,143289,120416
5394,478,68,143287,120433
5397,475,68,143288,120420
5399,472,68,143287,120425
5402,469,68,143288,120427
5404,466,68,143279,120431
5406,464,68,143290,120436
5409,461,68,143295,120433
5411,460,68,143294,120433
5414,459,68,143299,120431
5416,459,68,143312,120440
5420,458,68,143319,120433
5422,458,68,143317,120440
5425,458,68,143321,120437
5427,457,68,143313,120440
5429,457,68,143328,120442
5432,457,68,143308,120434
5434,457,68,143314,120440
5437,458,68,143312,120430
5439,459,68,143315,120436
5442,459,68,143311,120437
5444,460,68,143311,120443
5446,461,68,143309,120437
5449,462,68,143304,120435
5451,463,68,143306,120441
5454,464,68,143303,120431
5456,465,68,143289,120430
5459,466,68,143284,120429
5462,467,68,143282,120424
5465,468,68,143282,120432
5467,468,68,143273,120421
5469,469,68,143277,120423
5472,470,68,143267,120418
5474,471,68,143258,120419
5477,472,68,143253,120418
5479,474,68,143243,120422
5482,474,68,143240,120415
5484,475,68,143230,120412
5486,476,68,143230,120405
5489,477,68,143221,120415
5491,478,68,143218,120381
5494,479,68,143212,120413
5496,480,68,143214,120399
5499,480,68,143201,120397
5501,482,68,143197,120402
5505,482,68,143201,120404
5507,484,68,143202,120403
5509,485,68,143199,120400
5512,485,68,143208,120396
5514,486,68,143192,120399
5517,487,68,143196,120393
5519,488,68,143200,120396
5522,488,68,143200,120396
5524,489,68,143201,120406
5526,490,68,143208,120406
5529,491,68,143227,120402
5531,491,68,143234,120401
5534,491,68,143246,120408
5536,492,68,143247,120409
5539,493,68,143257,120413
5541,494,68,143265,120419
5544,495,68,143265,120417
5547,496,68,143272,120415
5549,496,68,143294,120415
5552,497,68,143302,120433
5554,497,68,143309,120428
5557,497,68,143309,120429
5559,498,67,143325,120441
5562,498,68,143337,120441
5564,498,68,143354,120445
5566,499,68,143362,120440
5569,499,68,143362,120453
5571,499,68,143362,120456
5574,500,68,143381,120457
5576,500,68,143387,120459
5579,500,68,143387,120465
5581,501,68,143401,120465
5584,502,68,143410,120465
5586,502,68,143417,120468
5588,502,68,143417,120474
5592,502,68,143430,120467
5594,503,68,143428,120467
5597,503,68,143440,120471
5599,503,68,143443,120471
5602,503,68,143447,120484
5604,503,68,143446,120476
5606,503,68,143446,120475
5609,504,68,143458,120481
5611,504,68,143451,120481
5614,504,68,143461,120479
5616,505,68,143461,120474
5619,505,68,143463,120484
5621,506,68,143458,120484
5624,506,68,143470,120482
5626,506,68,143460,120469
5628,506,68,143460,120480
5632,506,68,143466,120478
5634,506,68,143459,120478
5637,505,68,143459,120480
5639,505,68,143459,120474
5642,506,68,143469,120473
5644,506,68,143460,120473
5646,506,68,143471,120460
5649,507,68,143462,120468
5651,507,68,143462,120471
5654,507,68,143459,120472
5656,507,68,143465,120472
5659,507,68,143456,120477
5661,507,68,143456,120476
5664,508,68,143465,120474
5666,508,68,143459,120474
5668,509,68,143469,120474
5671,509,68,143476,120466
5673,508,68,143470,120466
5677,508,68,143462,120467
5679,508,68,143462,120475
5682,508,68,143479,120477
5684,508,68,143475,120483
5686,508,68,143475,120477
5689,509,68,143478,120477
5691,508,68,143497,120477
5694,508,68,143496,120477
5696,509,68,143496,120483
5699,509,68,143504,120483
5701,508,68,143504,120488
5704,508,68,143509,120486
5706,509,68,143516,120486
5708,508,68,143521,120487
5711,509,68,143516,120491
5713,509,68,143529,120491
5716,509,68,143529,120502
5719,509,68,143541,120505
5722,509,68,143549,120505
5724,509,68,143549,120508
5726,509,68,143556,120503
5729,509,68,143555,120503
5731,509,68,143570,120504
5734,509,68,143570,120510
5736,508,68,143558,120504
5739,508,67,143567,120504
5741,509,68,143590,120507
5744,509,68,143590,120515
5746,509,68,143597,120515
5748,509,68,143600,120528
5751,510,68,143600,120523
5753,509,68,143601,120535
5756,510,68,143612,120535
5758,509,68,143618,120532
5762,509,68,143618,120530
5764,509,68,143622,120521
5766,510,68,143620,120521
5769,510,68,143641,120532
5771,510,68,143638,120535
5774,510,67,143638,120538
5776,510,68,143650,120542
5779,510,67,143651,120542
5781,509,67,143655,120546
5784,509,68,143655,120539
5786,510,68,143653,120540
5788,510,68,143661,120540
5791,510,68,143668,120547
5793,510,68,143666,120553
5796,510,67,143674,120547
5798,510,68,143689,120548
5801,510,68,143701,120550
5804,510,67,143703,120554
5806,510,67,143703,120548
5809,510,68,143703,120559
5811,510,68,143709,120559
5814,510,67,143717,120563
5816,510,67,143715,120559
5819,510,68,143724,120564
5821,511,68,143731,120568
5824,510,67,143745,120563
5826,510,67,143745,120575
5828,511,68,143749,120575
5831,511,68,143749,120569
5833,512,68,143755,120577
5836,511,68,143763,120571
5838,511,67,143775,120570
5841,511,67,143760,120576
5843,511,67,143775,120578
5846,511,67,143786,120582
5849,510,67,143780,120582
5851,510,67,143777,120586
5854,510,68,143793,120587
5856,510,67,143792,120579
5859,510,67,143794,120588
5861,510,68,143804,120581
5864,510,67,143806,120583
5866,510,67,143804,120579
5868,510,67,143800,120583
5871,511,68,143797,120587
5873,511,67,143809,120589
5876,511,67,143807,120592
5878,511,68,143829,120592
5881,510,67,143833,120587
5883,511,68,143831,120598
5885,511,67,143829,120601
5889,510,67,143831,120587
5891,510,67,143841,120598
5894,511,67,143835,120600
5896,511,67,143837,120596
5899,511,67,143834,120592
5901,511,67,143845,120604
5904,511,67,143844,120603
5906,510,67,143850,120602
5908,510,68,143861,120603
5911,511,67,143864,120604
5913,511,67,143875,120605
5916,511,67,143870,120609
5918,511,67,143867,120606
5921,511,67,143869,120607
5923,511,67,143864,120607
5925,510,67,143869,120616
5928,510,67,143884,120616
5931,510,67,143888,120612
5934,510,67,143895,120616
5936,511,67,143898,120610
5939,511,67,143883,120618
5941,511,67,143889,120614
5944,510,67,143902,120618
5946,511,67,143892,120605
5948,511,67,143890,120612
5951,511,67,143919,120616
5953,510,67,143923,120621
5956,510,67,143902,120624
5958,510,67,143915,120624
5961,511,68,143912,120624
5963,511,67,143908,120623
5965,511,67,143926,120628
5968,511,67,143925,120622
5970,511,67,143929,120626
5974,511,67,143927,120633
5976,511,67,143931,120628
5979,511,67,143936,120622
5981,510,67,143942,120634
5984,510,67,143942,120634
5986,510,67,143946,120639
5988,510,67,143957,120642
5991,510,67,143957,120643
5993,510,67,143968,120642
5996,510,67,143960,120640
5998,510,67,143953,120644
6001,510,67,143965,120646
6003,510,67,143971,120642
6005,511,67,143974,120646
6008,511,67,143981,120652
6010,511,67,143978,120652
6013,510,67,143984,120626
6016,510,67,143997,120656
6019,510,67,143990,120652
6021,510,67,143995,120653
6024,510,67,144001,120659
6026,510,67,143999,120670
6028,510,67,144001,120657
6031,510,67,144008,120656
6033,510,67,144003,120663
6036,510,67,144009,120662
6038,510,67,144016,120664
6041,511,67,144016,120666
6043,510,67,144027,120667
6045,510,67,144026,120668
6048,510,67,144029,120670
6050,511,67,144031,120661
6053,511,67,144039,120659
6055,510,67,144033,120664
6059,510,67,144037,120669
6061,510,67,144049,120671
6064,510,67,144054,120667
6066,510,67,144050,120664
6068,510,67,144061,120664
6071,510,67,144069,120670
6073,511,67,144073,120675
6076,510,67,144073,120676
6078,510,67,144071,120680
6081,510,67,144073,120680
6083,510,67,144084,120682
6085,510,67,144084,120676
6088,510,67,144091,120679
6090,510,67,144091,120682
6093,510,67,144093,120684
6095,510,67,144097,120683
6098,510,67,144097,120691
6100,510,67,144109,120691
6104,510,67,144108,120691
6106,511,67,144121,120697
6108,511,67,144121,120696
6111,512,67,144127,120697
6113,512,67,144127,120699
6116,511,67,144132,120698
6118,511,67,144135,120700
6121,511,67,144135,120704
6123,511,67,144149,120710
6125,512,67,144155,120710
6128,513,67,144169,120720
6130,513,67,144169,120712
6133,513,67,144155,120712
6135,513,67,144164,120712
6138,513,67,144173,120709
6140,513,67,144172,120713
6144,514,67,144177,120714
6146,516,67,144178,120713
6148,517,68,144181,120713
6151,518,67,144184,120719
6153,518,67,144184,120721
6156,517,67,144194,120722
6158,517,67,144203,120722
6161,516,67,144216,120725
6163,516,67,144214,120730
6165,515,67,144214,120726
6168,515,67,144217,120727
6170,514,67,144224,120727
6173,512,67,144228,120728
6175,510,68,144228,120729
6178,509,67,144228,120732
6180,510,67,144243,120732
6183,510,67,144242,120742
6185,512,67,144242,120735
6188,512,67,144242,120736
6191,511,67,144246,120743
6193,511,67,144258,120743
6196,510,67,144257,120751
6198,508,67,144257,120749
6201,508,67,144260,120748
6203,508,67,144264,120748
6205,508,67,144281,120753
6208,507,67,144284,120751
6210,507,67,144282,120751
6213,507,67,144282,120751
6215,507,67,144279,120755
6218,507,67,144298,120755
6220,507,67,144298,120762
6223,507,67,144295,120761
6225,507,67,144303,120761
6227,507,67,144306,120759
6231,507,67,144314,120763
6233,507,67,144315,120763
6236,507,67,144315,120756
6238,506,67,144328,120769
6241,506,67,144317,120769
6243,507,67,144317,120759
6245,507,67,144327,120768
6248,507,67,144333,120768
6250,507,67,144340,120767
6253,506,67,144340,120776
6255,506,68,144349,120776
6258,507,67,144349,120776
6260,507,67,144353,120773
6263,508,67,144361,120773
6265,508,67,144361,120783
6267,508,67,144364,120783
6270,508,67,144363,120793
6273,508,67,144363,120788
6276,508,67,144374,120786
6278,508,67,144374,120789
6281,508,67,144374,120789
6283,508,67,144395,120791
6285,508,67,144395,120788
6288,508,67,144381,120788
6290,508,67,144389,120797
6293,508,67,144389,120789
6295,508,67,144390,120802
6298,508,67,144393,120802
6300,508,67,144400,120799
6303,508,67,144400,120803
6305,509,67,144410,120808
6307,509,67,144406,120808
6310,509,67,144409,120807
6312,509,67,144417,120814
6316,509,67,144417,120807
6318,509,67,144427,120805
6321,509,67,144418,120805
6323,509,67,144425,120809
6325,509,67,144425,120805
6328,509,67,144432,120806
6330,509,67,144423,120806
6333,509,67,144435,120811
6335,509,67,144438,120808
6338,509,67,144432,120809
6340,509,67,144438,120813
6343,509,67,144439,120818
6345,509,67,144442,120820
6347,509,67,144442,120821
6350,509,67,144444,120817
6352,509,67,144442,120817
6355,509,67,144455,120820
6358,509,67,144454,120817
6361,510,67,144455,120815
6363,510,67,144450,120820
6365,510,67,144462,120824
6368,510,67,144456,120820
6370,509,67,144463,120821
6373,509,67,144467,120830
6375,510,67,144474,120817
6378,510,67,144476,120823
6380,511,67,144481,120827
6383,511,67,144490,120825
6385,511,67,144467,120826
6387,510,67,144472,120824
6390,510,67,144467,120815
6392,510,67,144473,120820
6395,509,67,144475,120825
6397,509,67,144476,120816
6401,508,67,144473,120816
6403,506,67,144475,120822
6405,502,67,144485,120813
6408,499,67,144490,120821
6410,496,67,144489,120820
6413,491,67,144498,120827
6415,491,67,144495,120822
6418,492,67,144489,120828
6420,496,67,144493,120813
6423,503,67,144487,120824
6425,523,67,144495,120829
6427,535,67,144487,120831
6430,547,67,144492,120823
6432,561,67,144501,120828
6435,590,67,144514,120828
6437,606,67,144507,120830
6440,622,67,144512,120839
6443,634,67,144515,120824
6445,643,67,144519,120838
6448,647,67,144511,120839
6450,639,67,144516,120849
6453,628,68,144523,120839
6455,613,68,144522,120839
6458,594,67,144528,120838
6460,563,68,144536,120840
6463,543,67,144529,120854
6465,527,68,144532,120835
6467,508,67,144545,120846
6470,483,67,144534,120846
6472,474,67,144528,120846
6475,471,67,144535,120848
6477,468,67,144554,120841
6480,469,67,144545,120848
6482,475,67,144552,120845
6484,479,67,144544,120854
6488,484,67,144549,120843
6490,487,67,144556,120848
6493,488,67,144549,120851
6495,488,67,144550,120852
6498,488,67,144561,120847
6500,487,67,144564,120853
6503,487,67,144560,120857
6505,487,67,144570,120859
6507,487,67,144573,120865
6510,487,67,144569,120862
6512,488,67,144569,120852
6515,489,67,144579,120872
6517,489,67,144588,120871
6520,490,67,144580,120866
6522,490,67,144586,120864
6524,491,67,144581,120861
6528,491,67,144581,120860
6530,492,67,144588,120862
6533,493,67,144584,120875
6535,493,67,144595,120866
6538,493,67,144593,120863
6540,494,67,144597,120868
6543,494,67,144596,120847
6545,495,67,144600,120871
6547,496,67,144604,120868
6550,496,67,144598,120871
6552,496,67,144595,120869
6555,497,67,144607,120870
6557,497,67,144602,120871
6560,498,67,144608,120869
6562,498,67,144604,120869
6564,499,67,144611,120868
6567,499,67,144611,120874
6569,500,67,144621,120868
6573,500,67,144619,120872
6575,501,67,144628,120868
6578,501,67,144618,120865
6580,502,67,144620,120870
6583,502,67,144623,120873
6585,502,67,144635,120874
6587,503,67,144622,120871
6590,503,67,144634,120874
6592,504,67,144639,120871
6595,504,67,144634,120876
6597,504,67,144638,120871
6600,504,67,144638,120882
6602,505,67,144644,120880
6604,505,67,144639,120880
6607,506,67,144649,120894
6609,506,67,144646,120883
6612,507,67,144654,120884
6615,507,67,144650,120882
6618,507,67,144651,120885
6620,507,67,144656,120884
6623,507,67,144656,120889
6625,508,67,144647,120882
6627,508,67,144656,120882
6630,508,67,144659,120888
6632,509,67,144657,120880
6635,509,67,144657,120880
6637,509,67,144652,120883
6640,509,67,144660,120883
6642,510,67,144657,120880
6644,510,67,144657,120884
6647,511,67,144658,120880
6649,511,67,144652,120880
6652,512,67,144674,120896
6654,512,67,144668,120887
6658,512,67,144668,120886
6660,512,67,144670,120888
6663,513,67,144669,120888
6665,513,67,144676,120896
6667,513,67,144676,120895
6670,514,67,144671,120893
6672,514,67,144664,120893
6675,514,67,144666,120894
6677,515,67,144665,120878
6680,515,67,144645,120892
6682,515,67,144645,120878
6684,515,67,144641,120876
6687,515,67,144622,120879
6689,516,67,144612,120879
6692,517,67,144597,120862
6694,517,67,144597,120857
6697,518,67,144577,120843
6700,518,67,144531,120843
6703,518,67,144511,120837
6705,519,67,144511,120816
6707,520,67,144481,120805
6710,520,68,144399,120790
6712,521,67,144399,120774
6715,522,67,144304,120761
6717,523,67,144259,120761
6720,523,67,144208,120731
6722,525,67,144208,120695
6724,526,67,144149,120682
6727,527,67,144041,120661
6729,528,67,143978,120661
6732,530,67,143978,120615
6734,531,67,143865,120615
6737,532,67,143819,120602
6739,533,67,143819,120565
6743,534,67,143775,120552
6745,536,67,143692,120552
6747,537,68,143653,120538
6750,540,68,143625,120515
6752,541,67,143590,120515
6755,543,68,143590,120484
6757,545,68,143556,120479
6760,546,68,143491,120479
6762,548,68,143491,120452
6764,549,68,143480,120438
6767,550,68,143417,120438
6769,551,68,143354,120428
6772,553,68,143375,120418
6774,554,68,143360,120418
6777,555,68,143360,120406
6779,556,68,143343,120408
6782,557,68,143310,120408
6785,557,68,143310,120395
6787,557,68,143312,120395
6790,557,68,143282,120395
6792,556,68,143282,120390
6795,553,68,143282,120394
6797,551,68,143275,120395
6800,549,68,143263,120395
6802,547,68,143269,120396
6804,542,68,143269,120395
6807,540,68,143256,120395
6809,537,68,143259,120391
6812,530,68,143259,120383
6814,525,68,143255,120392
6817,522,68,143258,120392
6819,517,68,143261,120382
6822,510,68,143261,120395
6824,506,68,143262,120394
6827,502,68,143263,120394
6830,498,68,143267,120388
6832,495,68,143272,120399
6835,489,68,143272,120397
6837,485,68,143281,120398
6840,483,68,143270,120398
6842,480,68,143274,120395
6844,478,68,143274,120399
6847,473,68,143283,120407
6849,472,68,143278,120407
6852,470,68,143281,120406
6854,469,68,143276,120404
6857,468,68,143274,120398
6859,467,68,143285,120400
6862,466,68,143277,120405
6864,466,68,143278,120409
6866,465,68,143278,120392
6870,465,68,143282,120392
6872,466,67,143276,120392
6875,467,68,143275,120386
6877,468,68,143271,120391
6880,469,68,143265,120387
6882,470,67,143269,120385
6884,471,68,143259,120388
6887,472,67,143259,120383
6889,474,68,143246,120378
6892,474,68,143234,120376
6894,476,68,143234,120375
6897,476,68,143235,120375
6899,479,67,143229,120372
6902,481,68,143228,120366
6904,482,68,143207,120370
6906,484,68,143205,120358
6909,485,68,143202,120360
6912,485,68,143175,120359
6915,485,67,143186,120356
6917,486,67,143181,120346
6920,487,68,143174,120349
6922,488,68,143168,120343
6924,489,68,143151,120339
6927,489,68,143134,120335
6929,488,68,143130,120334
6932,487,68,143130,120333
6934,485,67,143119,120330
6937,484,68,143113,120329
6939,485,68,143105,120328
6942,485,68,143102,120329
6944,485,68,143098,120326
6946,485,68,143082,120324
6949,484,68,143080,120321
6951,484,68,143073,120319
6955,484,68,143085,120330
6957,484,68,143085,120326
6960,484,68,143092,120325
6962,485,68,143094,120325
6964,485,68,143087,120322
6967,485,68,143095,120323
6969,486,68,143100,120326
6972,486,68,143109,120324
6974,487,67,143117,120329
6977,487,68,143111,120333
6979,488,68,143126,120333
6982,488,68,143141,120339
6984,489,68,143140,120347
6986,490,68,143151,120348
6989,490,68,143167,120353
6991,491,68,143181,120352
6994,492,68,143183,120357
6996,492,68,143191,120362
7000,492,68,143212,120365
7002,493,68,143225,120363
7004,494,68,143234,120376
7007,494,68,143242,120373
7009,495,68,143249,120385
7012,496,68,143271,120383
7014,496,68,143267,120386
7017,497,68,143289,120383
7019,497,68,143298,120387
7022,497,68,143306,120394
7024,498,68,143314,120392
7026,499,68,143320,120401
7029,499,68,143319,120396
7031,500,68,143343,120403
7034,500,68,143335,120400
7036,500,68,143332,120403
7040,501,68,143355,120401
7042,501,68,143359,120409
7044,501,68,143362,120408
7047,502,68,143367,120413
7049,502,68,143369,120419
7052,503,68,143375,120417
7054,503,68,143379,120420
7057,503,68,143386,120418
7059,504,68,143385,120425
7062,504,68,143397,120418
7064,504,68,143404,120425
7066,504,68,143398,120437
7069,504,68,143396,120430
7071,504,68,143402,120424
7074,504,68,143402,120427
7076,504,68,143402,120429
7079,504,68,143401,120426
7081,505,68,143404,120431
7084,505,68,143418,120436
7087,505,68,143416,120428
7089,506,68,143411,120431
7092,506,68,143413,120432
7094,506,68,143416,120431
7097,505,68,143412,120433
7099,505,68,143408,120425
7102,506,68,143411,120431
7104,506,68,143424,120431
7106,506,68,143415,120422
7109,506,68,143423,120424
7111,506,68,143418,120425
7114,505,68,143421,120429
7116,505,68,143424,120423
7119,506,68,143424,120426
7121,506,68,143422,120431
7123,506,68,143416,120431
7127,507,68,143434,120425
7129,507,68,143428,120429
7132,507,68,143427,120426
7134,507,68,143432,120429
7137,507,68,143435,120427
7139,507,68,143435,120425
7142,507,68,143435,120430
7144,507,68,143442,120432
7146,508,68,143442,120432
7149,508,68,143456,120440
7151,508,68,143459,120436
7154,508,68,143459,120439
7156,508,68,143452,120441
7159,508,68,143464,120441
7161,508,68,143463,120447
7163,508,68,143463,120441
7166,508,68,143477,120445
7169,508,68,143476,120445
7172,509,68,143488,120453
7174,509,68,143491,120453
7177,508,68,143491,120455
7179,509,68,143501,120456
7182,509,68,143507,120456
7184,509,68,143515,120462
7186,508,68,143515,120468
7189,509,68,143518,120464
7191,509,68,143527,120464
7194,509,68,143527,120470
7196,510,68,143539,120466
7199,510,68,143535,120474
7201,510,68,143535,120468
7203,510,68,143547,120481
7206,510,68,143570,120478
7208,510,68,143563,120478
7212,510,68,143570,120485
7214,510,68,143570,120483
7217,510,68,143579,120485
7219,510,68,143593,120485
7222,510,68,143607,120486
7224,510,68,143607,120492
7226,510,68,143607,120491
7229,511,68,143613,120486
7231,511,68,143618,120486
7234,511,68,143625,120496
7236,511,68,143625,120504
7239,511,68,143629,120501
7241,512,68,143638,120501
7243,512,68,143643,120499
7246,512,68,143650,120504
7248,512,68,143650,120503
7251,512,68,143660,120503
7254,512,68,143668,120512
7257,511,68,143670,120510
7259,511,68,143670,120516
7262,511,68,143690,120515
7264,511,68,143687,120515
7266,511,68,143700,120520
7269,512,68,143705,120523
7271,512,68,143717,120523
7274,512,68,143717,120532
7276,512,68,143720,120532
7279,512,68,143733,120532
7281,512,68,143733,120534
7283,512,68,143744,120541
7286,512,68,143759,120541
7288,512,68,143761,120543
7291,512,68,143763,120543
7293,512,68,143761,120543
7297,512,68,143761,120548
7299,512,68,143772,120547
7302,512,68,143786,120547
7304,512,68,143786,120550
7306,512,68,143794,120552
7309,512,68,143800,120552
7311,512,68,143798,120564
7314,512,68,143798,120560
7316,512,69,143815,120560
7319,513,68,143815,120566
7321,513,68,143788,120565
7323,513,68,143814,120565
7326,513,68,143814,120570
7328,513,68,143824,120565
7331,513,68,143826,120565
7333,513,68,143833,120571
7336,513,69,143833,120568
7339,512,68,143828,120575
7342,512,68,143840,120575
7344,512,68,143854,120569
7346,512,68,143851,120576
7349,512,68,143851,120582
7351,512,68,143864,120582
7354,512,68,143858,120582
7356,512,69,143864,120583
7359,513,69,143864,120577
7361,513,69,143862,120579
7363,513,69,143871,120579
7366,513,69,143876,120586
7368,513,68,143876,120589
7371,512,68,143876,120588
7373,512,69,143890,120588
7376,512,68,143877,120586
7378,512,68,143891,120596
7382,512,69,143891,120594
7384,512,68,143906,120592
7386,512,69,143908,120592
7389,512,68,143902,120594
7391,512,69,143910,120597
7394,512,69,143907,120596
7396,512,69,143920,120607
7399,513,68,143921,120603
7401,512,68,143922,120605
7403,512,69,143922,120610
7406,513,68,143930,120608
7408,513,69,143938,120608
7411,512,69,143932,120608
7413,512,69,143932,120604
7416,513,69,143942,120603
7418,513,69,143938,120608
7421,512,69,143948,120611
7424,512,69,143948,120613
7426,512,69,143956,120613
7429,512,68,143960,120621
7431,512,69,143956,120620
7434,512,69,143965,120618
7436,512,68,143976,120620
7439,512,69,143973,120618
7441,512,68,143973,120626
7443,512,69,143984,120629
7446,512,69,143988,120625
7448,512,69,143980,120629
7451,511,69,143976,120632
7453,511,69,144002,120631
7456,511,69,144009,120628
7458,511,69,144000,120633
7461,511,69,144008,120637
7463,512,69,143999,120636
7465,512,69,144011,120641
7469,512,69,144003,120637
7471,511,69,144003,120639
7474,511,68,144017,120643
7476,511,69,144028,120639
7479,511,69,144026,120645
7481,511,69,144033,120646
7483,511,69,144040,120642
7486,512,69,144042,120644
7488,511,69,144040,120647
7491,512,68,144035,120638
7493,512,68,144044,120646
7496,512,69,144047,120643
7498,511,69,144051,120648
7501,511,69,144053,120651
7503,511,69,144070,120650
7505,511,69,144067,120648
7508,512,69,144071,120648
7511,512,69,144075,120655
7514,512,69,144078,120655
7516,511,69,144086,120651
7519,511,69,144077,120656
7521,510,69,144072,120661
7523,510,69,144093,120654
7526,511,68,144085,120661
7528,510,69,144087,120665
7531,511,69,144102,120660
7533,511,69,144107,120661
7536,511,69,144111,120665
7538,512,69,144118,120669
7541,512,69,144116,120665
7543,512,69,144114,120670
7545,512,69,144135,120673
7548,513,69,144131,120672
7550,512,69,144142,120684
7554,512,69,144139,120683
7556,512,69,144142,120679
7559,512,69,144154,120684
7561,512,69,144163,120691
7563,512,69,144163,120689
7566,511,69,144161,120689
7568,512,69,144160,120691
7571,512,69,144166,120694
7573,512,69,144173,120694
7576,512,69,144168,120693
7578,512,69,144187,120692
7581,512,69,144188,120694
7583,512,69,144184,120704
7585,512,69,144194,120700
7588,512,69,144192,120701
7590,512,69,144201,120711
7593,512,69,144207,120708
7596,511,69,144212,120719
7599,511,69,144223,120712
7601,511,69,144212,120712
7603,511,69,144232,120711
7606,511,69,144232,120716
7608,510,69,144233,120718
7611,511,69,144237,120694
7613,511,69,144247,120723
7616,511,69,144245,120719
7618,511,69,144250,120716
7621,511,69,144248,120722
7623,511,69,144263,120730
7625,511,69,144266,120731
7628,511,69,144269,120731
7630,511,69,144262,120726
7633,510,69,144269,120721
7635,510,69,144273,120727
7639,510,69,144273,120730
7641,510,69,144270,120735
7643,510,69,144281,120735
7646,511,69,144284,120735
7648,511,69,144284,120725
7651,511,69,144293,120729
7653,512,69,144292,120734
7656,512,69,144290,120733
7658,511,69,144305,120737
7661,510,69,144305,120739
7663,511,69,144308,120739
7665,511,69,144309,120739
7668,511,69,144321,120744
7670,512,69,144319,120734
7673,512,69,144319,120737
7675,512,69,144321,120742
7678,513,69,144323,120742
7681,512,69,144328,120751
7683,512,69,144328,120743
7686,512,69,144340,120746
7688,513,69,144340,120753
7691,514,69,144334,120743
7693,515,69,144347,120746
7696,515,69,144347,120742
7698,514,69,144336,120754
7701,514,69,144353,120754
7703,514,69,144357,120761
7705,514,69,144357,120750
7708,515,69,144356,120755
7710,516,69,144357,120755
7713,517,69,144377,120754
7715,517,70,144370,120761
7718,517,70,144370,120767
7720,516,69,144370,120764
7723,515,69,144370,120761
7726,515,69,144369,120759
7728,515,70,144385,120759
7731,516,70,144383,120772
7733,516,70,144383,120770
7736,515,69,144390,120767
7738,513,69,144393,120767
7741,511,70,144412,120771
7743,509,70,144399,120768
7745,510,70,144399,120771
7748,511,70,144397,120773
7750,511,70,144395,120773
7753,512,70,144403,120777
7755,511,70,144403,120774
7758,511,70,144406,120770
7760,510,70,144401,120770
7762,509,70,144424,120766
7766,508,70,144421,120774
7768,508,70,144421,120781
7771,507,70,144419,120786
7773,508,70,144425,120786
7776,508,70,144434,120784
7778,508,70,144434,120783
7781,508,70,144432,120785
7783,508,70,144440,120785
7785,508,70,144449,120783
7788,508,70,144441,120781
7790,508,70,144438,120781
7793,508,70,144434,120778
7795,508,70,144434,120789
7798,508,70,144448,120781
7800,508,70,144449,120794
7802,508,70,144449,120785
7805,508,70,144451,120785
7808,507,70,144465,120793
7811,507,70,144459,120780
7813,508,70,144459,120796
7816,508,70,144462,120796
7818,509,70,144462,120790
7821,509,70,144478,120796
7823,509,70,144471,120796
7825,509,70,144484,120797
7828,509,70,144477,120802
7830,509,70,144471,120802
7833,508,70,144471,120794
7835,508,70,144476,120802
7838,508,70,144483,120802
7840,508,70,144483,120795
7842,509,70,144489,120803
7845,509,70,144486,120803
7847,507,70,144486,120799
7851,504,70,144490,120799
7853,500,70,144487,120807
7856,496,70,144487,120807
7858,493,70,144509,120810
7861,491,70,144509,120795
7863,491,70,144500,120795
7865,493,71,144492,120807
7868,505,70,144492,120808
7870,517,70,144490,120800
7873,527,70,144497,120800
7875,539,70,144504,120808
7878,562,70,144504,120803
7880,578,70,144505,120804
7882,592,70,144501,120804
7885,608,70,144519,120796
7887,621,71,144512,120808
7890,639,70,144512,120805
7892,642,71,144518,120807
7896,640,71,144514,120807
7898,633,71,144516,120799
7901,621,71,144516,120813
7903,592,71,144512,120809
7905,581,71,144520,120809
7908,565,71,144514,120806
7910,548,71,144521,120813
7913,531,71,144512,120806
7915,498,71,144525,120810
7918,486,71,144528,120801
7920,478,71,144529,120818
7922,473,71,144529,120821
7925,472,71,144535,120816
7927,474,71,144540,120816
7930,477,71,144536,120826
7932,479,71,144541,120813
7936,482,71,144537,120813
7938,487,71,144543,120818
7941,487,71,144541,120822
7943,487,71,144547,120824
7945,487,71,144547,120817
7948,486,71,144545,120817
7950,486,71,144553,120817
7953,486,71,144564,120830
7955,487,71,144554,120825
7958,487,71,144549,120817
7960,489,71,144558,120824
7962,489,71,144564,120819
7965,489,71,144557,120821
7967,489,71,144566,120817
7970,489,71,144565,120823
7972,490,71,144558,120820
7975,490,71,144567,120823
7977,491,71,144571,120825
7981,492,71,144571,120824
7983,493,71,144573,120828
7985,493,71,144570,120825
7988,493,71,144574,120834
7990,494,71,144575,120831
7993,494,71,144583,120829
7995,495,71,144580,120829
7998,495,71,144577,120834
8000,495,71,144586,120825
8002,496,71,144578,120827
8005,497,71,144588,120829
8007,497,71,144591,120831
8010,498,71,144587,120833
8012,498,71,144589,120837
8015,499,71,144595,120833
8017,499,71,144593,120838
8020,499,71,144599,120838
8023,500,71,144596,120835
8025,500,71,144608,120841
8028,500,71,144602,120839
8030,500,71,144620,120839
8033,501,71,144614,120847
8035,502,71,144613,120850
8038,502,71,144610,120846
8040,503,71,144617,120845
8042,504,71,144631,120847
8045,504,71,144620,120853
8047,504,71,144616,120849
8050,505,71,144614,120839
8052,506,71,144632,120852
8055,506,71,144629,120845
8057,506,71,144635,120842
8060,506,71,144617,120836
8062,507,71,144631,120843
8065,507,72,144624,120846
8068,507,72,144634,120848
8070,507,71,144626,120843
8073,508,71,144631,120842
8075,508,72,144627,120842
8078,509,72,144626,120850
8080,509,72,144636,120851
8082,509,72,144644,120849
8085,510,72,144638,120853
8087,510,72,144641,120858
8090,511,72,144636,120852
8092,511,72,144638,120856
8095,512,72,144650,120860
8097,512,72,144657,120864
8100,512,72,144652,120855
8102,512,72,144657,120859
8104,512,72,144664,120867
8108,513,72,144660,120866
8110,513,72,144656,120871
8113,513,72,144656,120867
8115,514,72,144660,120860
8118,514,72,144657,120871
8120,514,72,144665,120857
8122,514,72,144650,120855
8125,515,72,144651,120854
8127,515,72,144652,120854
8130,516,72,144638,120858
8132,516,72,144628,120858
8135,516,72,144625,120852
8137,516,72,144609,120848
8140,517,72,144606,120837
8142,517,72,144588,120830
8144,518,72,144580,120823
8147,519,72,144559,120816
8150,519,72,144543,120806
8153,519,72,144510,120798
8155,520,72,144486,120777
8158,520,72,144452,120777
8160,521,72,144428,120766
8162,523,72,144385,120751
8165,523,72,144355,120740
8167,524,72,144305,120721
8170,525,72,144258,120703
8172,526,72,144208,120683
8175,526,72,144208,120666
8177,527,72,144093,120647
8180,529,72,144042,120647
8182,531,72,143997,120612
8184,533,72,143926,120588
8187,534,72,143882,120572
8189,536,73,143826,120546
8193,537,73,143770,120529
8195,539,72,143741,120526
8198,539,73,143741,120504
8200,541,73,143650,120499
8202,542,73,143622,120499
8205,544,73,143594,120476
8207,545,73,143554,120463
8210,547,73,143531,120455
8212,549,73,143500,120443
8215,550,73,143486,120433
8217,551,73,143457,120421
8220,552,73,143457,120423
8222,553,73,143414,120415
8224,554,73,143390,120415
8227,556,73,143389,120408
8229,556,73,143367,120394
8232,556,73,143367,120387
8235,556,73,143339,120387
8238,555,73,143329,120383
8240,553,73,143313,120379
8242,552,73,143313,120377
8245,550,73,143294,120373
8247,548,73,143294,120373
8250,545,73,143291,120372
8252,541,73,143291,120368
8255,537,73,143274,120369
8257,535,73,143283,120369
8260,531,73,143288,120374
8262,524,73,143280,120362
8264,521,73,143280,120367
8267,517,73,143281,120370
8269,514,73,143277,120370
8272,510,73,143282,120367
8274,504,73,143283,120368
8278,501,74,143285,120372
8280,495,73,143285,120373
8282,490,74,143286,120376
8285,486,73,143293,120374
8287,484,74,143294,120374
8290,480,73,143301,120372
8292,478,73,143301,120379
8295,476,73,143305,120385
8297,475,74,143315,120385
8300,473,74,143311,120385
8302,472,73,143311,120380
8304,470,74,143312,120384
8307,469,74,143323,120390
8309,468,74,143323,120382
8312,468,73,143325,120388
8314,467,74,143327,120388
8317,467,74,143332,120387
8320,466,74,143332,120382
8322,467,74,143330,120386
8325,467,73,143330,120386
8327,467,73,143331,120386
8330,468,74,143331,120389
8332,468,74,143334,120389
8335,468,74,143333,120391
8337,469,74,143333,120387
8340,470,74,143329,120384
8342,470,74,143328,120384
8344,471,74,143326,120385
8347,472,74,143326,120382
8349,473,74,143313,120380
8352,474,74,143294,120380
8354,475,74,143295,120372
8357,475,74,143295,120376
8359,476,74,143284,120376
8361,477,74,143281,120372
8365,478,74,143281,120368
8367,479,74,143272,120371
8370,479,74,143262,120371
8372,480,74,143254,120361
8375,481,74,143254,120356
8377,482,74,143243,120350
8380,482,74,143230,120350
8382,483,74,143230,120340
8384,485,74,143223,120343
8387,486,74,143220,120348
8389,487,74,143220,120347
8392,487,74,143208,120343
8394,488,74,143205,120345
8397,489,74,143208,120345
8399,489,74,143208,120336
8401,491,74,143208,120337
8404,492,74,143201,120337
8407,493,74,143203,120349
8410,495,74,143203,120347
8412,496,74,143206,120349
8415,497,74,143219,120349
8417,498,74,143211,120349
8420,501,74,143211,120350
8422,502,74,143214,120352
8424,503,74,143227,120352
8427,504,74,143241,120348
8429,506,74,143249,120355
8432,507,74,143249,120356
8434,509,74,143261,120359
8437,510,75,143272,120366
8439,510,74,143288,120374
8441,511,75,143288,120378
8444,510,75,143307,120380
8446,510,75,143302,120380
8450,510,74,143311,120378
8452,509,74,143329,120386
8455,509,75,143330,120385
8457,508,74,143352,120393
8460,507,75,143369,120398
8462,506,74,143380,120397
8464,505,75,143380,120403
8467,505,75,143384,120403
8469,504,75,143385,120410
8472,504,74,143413,120412
8474,503,75,143404,120406
8477,502,75,143407,120406
8479,501,75,143422,120412
8481,500,75,143429,120417
8484,499,75,143437,120415
8486,499,75,143435,120421
8489,499,75,143446,120430
8492,499,75,143451,120422
8495,498,75,143439,120425
8497,498,75,143467,120427
8500,498,75,143458,120426
8502,498,75,143467,120429
8504,498,75,143471,120434
8507,498,75,143466,120438
8509,499,75,143468,120425
8512,499,75,143471,120431
8514,499,75,143470,120435
8517,499,75,143472,120435
8519,499,75,143475,120433
8521,499,75,143479,120436
8524,500,75,143489,120430
8526,501,75,143490,120432
8529,500,75,143485,120433
8531,501,75,143477,120428
8535,501,75,143490,120429
8537,501,75,143480,120427
8540,501,75,143472,120430
8542,502,75,143481,120425
8544,502,75,143474,120429
8547,502,75,143492,120441
8549,502,75,143495,120438
8552,502,75,143488,120437
8554,502,75,143477,120442
8557,502,75,143492,120438
8559,503,75,143487,120440
8561,503,75,143487,120439
8564,503,75,143486,120431
8566,504,75,143490,120440
8569,504,75,143507,120442
8571,504,75,143500,120442
8574,504,75,143498,120445
8577,504,75,143491,120438
8580,504,75,143500,120437
8582,504,75,143496,120436
8584,504,75,143497,120445
8587,505,75,143512,120443
8589,505,75,143522,120441
8592,505,75,143500,120449
8594,505,75,143511,120443
8597,505,75,143512,120444
8599,505,75,143516,120446
8601,505,75,143517,120447
8604,505,75,143513,120444
8606,505,75,143528,120454
8609,506,75,143518,120451
8611,505,75,143522,120453
8614,505,75,143524,120446
8616,505,75,143530,120443
8620,506,75,143535,120451
8622,506,75,143536,120453
8624,506,75,143544,120455
8627,507,75,143547,120451
8629,507,75,143554,120451
8632,507,75,143557,120461
8634,507,75,143555,120459
8637,507,75,143561,120455
8639,508,75,143573,120461
8641,508,75,143563,120462
8644,508,75,143565,120469
8646,508,75,143574,120470
8649,508,75,143581,120464
8651,508,75,143590,120466
8654,508,75,143588,120479
8656,508,75,143593,120479
8659,508,75,143610,120481
8662,508,75,143613,120479
8664,509,75,143620,120481
8667,509,75,143623,120487
8669,509,75,143634,120489
8672,508,75,143638,120496
8674,507,75,143643,120496
8677,508,75,143645,120490
8679,508,75,143647,120498
8681,508,75,143656,120500
8684,508,75,143665,120503
8686,508,75,143667,120509
8689,508,75,143678,120514
8691,509,75,143683,120497
8694,509,75,143677,120504
8696,509,75,143685,120511
8699,509,75,143695,120512
8701,509,75,143706,120508
8704,509,75,143700,120512
8707,509,75,143720,120509
8709,508,75,143711,120516
8712,508,75,143711,120513
8714,508,75,143726,120517
8717,509,75,143732,120517
8719,509,75,143745,120520
8721,509,75,143746,120525
8724,509,75,143751,120529
8726,510,75,143751,120536
8729,510,75,143769,120532
8731,510,76,143772,120535
8734,510,76,143772,120538
8736,510,75,143782,120538
8739,510,75,143792,120538
8741,509,76,143802,120547
8743,509,76,143798,120544
8747,509,76,143809,120551
8749,509,76,143809,120547
8752,510,76,143819,120549
8754,510,76,143812,120543
8757,510,76,143812,120549
8759,511,75,143830,120550
8761,511,75,143837,120550
8764,511,75,143848,120558
8766,511,76,143848,120563
8769,511,75,143852,120566
8771,511,76,143857,120566
8774,511,75,143859,120565
8776,512,76,143863,120566
8779,512,76,143878,120570
8781,512,76,143877,120562
8783,512,76,143886,120562
8786,512,76,143890,120577
8788,512,75,143890,120581
8792,511,76,143891,120579
8794,511,76,143900,120579
8797,511,76,143914,120579
8799,511,76,143913,120581
8801,511,76,143913,120590
8804,512,76,143922,120591
8806,512,76,143924,120591
8809,512,76,143929,120596
8811,512,75,143929,120588
8814,512,76,143929,120593
8816,512,75,143936,120593
8819,511,75,143949,120592
8821,512,76,143946,120598
8823,512,75,143946,120602
8826,512,75,143965,120603
8828,512,75,143964,120603
8832,512,75,143962,120609
8834,512,75,143962,120603
8837,512,75,143965,120603
8839,512,75,143971,120603
8841,512,75,143985,120603
8844,512,76,143982,120599
8846,512,76,143981,120599
8849,512,75,143981,120601
8851,511,75,143981,120616
8854,511,75,143990,120616
8856,511,75,143990,120618
8859,511,76,144000,120624
8861,511,76,144005,120624
8863,511,76,144011,120618
8866,511,76,144006,120624
8868,511,75,144013,120624
8871,512,75,144013,120624
8873,512,75,144019,120620
8877,512,75,144021,120620
8879,511,75,144021,120621
8881,511,75,144025,120629
8884,511,75,144032,120629
8886,511,76,144033,120627
8889,511,75,144033,120629
8891,511,76,144030,120629
8894,511,76,144030,120625
8896,511,75,144030,120628
8899,511,75,144044,120628
8901,511,75,144044,120625
8903,512,75,144046,120632
8906,512,76,144040,120634
8908,511,75,144040,120634
8911,512,75,144052,120639
8913,512,75,144046,120638
8916,512,75,144053,120638
8919,512,75,144067,120635
8921,512,75,144067,120632
8924,511,76,144059,120632
8926,511,75,144069,120642
8929,511,75,144069,120635
8931,511,75,144076,120644
8934,511,75,144082,120644
8936,511,75,144078,120648
8939,511,75,144078,120653
8941,511,75,144078,120653
8943,511,75,144086,120653
8946,511,75,144098,120652
8948,511,75,144092,120658
8951,511,75,144092,120656
8953,511,75,144109,120654
8956,511,75,144101,120654
8958,511,75,144107,120655
8961,511,75,144107,120655
8964,511,75,144109,120657
8966,511,75,144103,120657
8969,511,75,144106,120661
8971,511,75,144119,120664
8974,511,75,144127,120662
8976,511,75,144127,120670
8979,511,75,144138,120663
8981,511,75,144138,120666
8983,511,75,144151,120666
8986,510,75,144146,120668
8988,510,75,144154,120671
8991,510,75,144157,120671
8993,511,75,144166,120672
8996,512,75,144154,120679
8998,512,75,144165,120679
9000,512,75,144160,120671
9004,512,75,144173,120677
9006,512,75,144170,120674
9009,511,75,144174,120681
9011,511,75,144182,120682
9014,510,75,144186,120682
9016,510,75,144200,120679
9019,510,75,144202,120689
9021,510,75,144189,120683
9023,510,75,144209,120681
9026,510,75,144210,120687
9028,511,75,144211,120682
9031,510,75,144214,120694
9033,510,75,144212,120685
9036,510,75,144213,120701
9038,511,75,144214,120698
9040,510,75,144232,120698
9043,510,75,144238,120700
9046,510,75,144239,120695
9049,511,75,144249,120702
9051,511,75,144250,120711
9054,510,75,144249,120709
9056,511,75,144252,120697
9059,510,75,144259,120704
9061,510,75,144261,120712
9063,510,75,144262,120716
9066,510,75,144269,120712
9068,510,75,144274,120713
9071,510,75,144279,120716
9073,510,75,144296,120724
9076,510,74,144286,120721
9078,510,75,144286,120720
9080,510,74,144293,120721
9083,510,74,144296,120726
9085,510,74,144297,120724
9089,511,74,144309,120726
9091,511,75,144305,120724
9094,511,74,144321,120729
9096,511,75,144324,120728
9099,510,74,144322,120732
9101,510,74,144320,120725
9103,510,74,144329,120736
9106,510,74,144323,120736
9108,510,74,144329,120740
9111,510,75,144344,120742
9113,510,74,144350,120739
9116,510,74,144354,120750
9118,510,74,144345,120742
9120,510,74,144348,120742
9123,510,74,144354,120744
9125,510,74,144357,120743
9128,510,74,144365,120747
9131,510,74,144368,120747
9134,510,74,144367,120752
9136,510,74,144375,120751
9139,510,74,144367,120754
9141,510,74,144373,120758
9143,510,74,144369,120751
9146,510,74,144382,120760
9148,510,74,144383,120752
9151,510,74,144384,120765
9153,510,74,144397,120765
9156,509,74,144391,120761
9158,509,74,144391,120766
9160,509,74,144402,120762
9163,509,74,144401,120770
9165,509,74,144396,120764
9168,510,74,144405,120768
9170,510,74,144408,120770
9174,510,74,144408,120768
9176,510,74,144419,120769
9179,510,74,144414,120763
9181,512,74,144413,120769
9183,513,74,144424,120770
9186,513,74,144423,120773
9188,514,74,144425,120772
9191,513,74,144427,120769
9193,514,74,144417,120773
9196,514,74,144429,120768
9198,514,74,144422,120772
9200,515,74,144438,120779
9203,516,74,144439,120775
9205,517,74,144437,120757
9208,518,74,144433,120771
9210,517,74,144438,120766
9213,516,74,144449,120777
9216,516,74,144444,120773
9219,516,74,144444,120772
9221,515,74,144447,120774
9223,515,74,144450,120777
9226,514,74,144452,120775
9228,514,74,144456,120771
9231,512,74,144460,120777
9233,511,73,144453,120773
9236,511,73,144453,120771
9238,511,74,144449,120774
9240,511,73,144452,120774
9243,511,73,144464,120781
9245,510,74,144461,120772
9248,509,73,144470,120773
9250,509,73,144470,120774
9253,508,73,144467,120776
9255,507,73,144476,120771
9259,507,73,144476,120783
9261,506,73,144475,120781
9263,506,73,144483,120781
9266,506,73,144487,120790
9268,506,73,144485,120785
9271,505,73,144485,120787
9273,504,73,144486,120788
9276,502,73,144490,120788
9278,496,73,144490,120794
9280,493,73,144490,120785
9283,490,73,144490,120791
9285,489,73,144490,120791
9288,490,73,144503,120792
9290,498,73,144505,120792
9293,504,73,144505,120799
9295,515,73,144508,120793
9298,525,73,144502,120793
9300,550,73,144511,120795
9303,561,73,144511,120799
9306,578,73,144510,120803
9308,591,73,144515,120803
9311,604,73,144529,120790
9313,627,73,144528,120796
9316,633,73,144512,120799
9318,638,73,144512,120799
9320,633,73,144520,120807
9323,619,73,144524,120804
9325,610,73,144530,120804
9328,583,73,144524,120795
9330,569,73,144524,120803
9333,549,73,144534,120797
9335,534,73,144533,120797
9338,515,73,144526,120801
9340,490,73,144526,120802
9342,480,73,144530,120798
9346,475,73,144536,120798
9348,473,73,144545,120807
9351,473,73,144538,120801
9353,475,73,144538,120804
9356,478,73,144545,120812
9358,481,72,144543,120812
9360,484,73,144549,120807
9363,486,73,144549,120806
9365,485,72,144547,120813
9368,485,73,144552,120813
9370,485,73,144561,120808
9373,484,72,144560,120813
9375,484,73,144560,120819
9378,484,72,144570,120817
9380,485,72,144566,120817
9382,485,72,144574,120821
9385,485,72,144565,120820
9388,485,72,144577,120820
9391,486,72,144577,120826
9393,486,72,144578,120830
9396,487,72,144580,120830
9398,487,72,144580,120824
9400,488,72,144591,120828
9403,489,72,144593,120828
9405,490,72,144562,120828
9408,491,72,144593,120828
9410,491,72,144592,120828
9413,492,72,144592,120828
9415,493,72,144601,120829
9418,493,72,144607,120829
9420,493,72,144607,120827
9422,493,72,144609,120828
9425,494,72,144602,120828
9427,494,72,144602,120831
9431,494,72,144602,120828
9433,495,72,144600,120822
9436,496,72,144602,120822
9438,496,72,144611,120832
9440,497,72,144611,120834
9443,497,72,144607,120834
9445,497,72,144606,120835
9448,498,72,144606,120842
9450,498,72,144611,120836
9453,498,72,144616,120836
9455,498,72,144616,120842
9458,499,72,144616,120846
9460,499,71,144621,120839
9462,500,72,144628,120839
9465,500,72,144626,120837
9467,501,72,144622,120841
9470,502,71,144622,120842
9473,502,71,144641,120845
9476,502,71,144627,120845
9478,502,71,144626,120843
9480,502,71,144626,120848
9483,503,71,144631,120850
9485,503,71,144636,120850
9488,504,71,144639,120853
9490,504,71,144634,120845
9493,505,71,144638,120849
9495,505,71,144644,120852
9498,505,71,144649,120845
9500,505,71,144649,120851
9502,506,71,144646,120851
9505,506,71,144646,120848
9507,507,71,144648,120853
9510,507,71,144656,120846
9512,508,71,144680,120857
9516,509,71,144670,120861
9518,509,71,144658,120859
9520,509,71,144661,120854
9523,509,71,144659,120851
9525,510,71,144667,120859
9528,510,71,144674,120856
9530,511,71,144674,120852
9533,511,71,144674,120852
9535,511,71,144665,120852
9538,512,71,144685,120856
9540,511,71,144660,120858
9542,512,71,144662,120854
9545,512,71,144668,120847
9547,513,71,144669,120852
9550,513,71,144662,120852
9552,513,70,144659,120853
9555,513,71,144654,120846
9558,514,71,144639,120844
9560,515,70,144642,120838
9563,515,71,144610,120839
9565,516,71,144611,120835
9568,516,71,144603,120832
9570,517,70,144589,120817
9573,517,71,144573,120809
9575,518,71,144537,120806
9578,518,70,144514,120797
9580,518,71,144488,120781
9582,519,70,144458,120771
9585,519,70,144429,120760
9587,520,70,144386,120746
9590,521,70,144343,120728
9592,522,70,144302,120708
9595,523,70,144256,120690
9597,524,70,144201,120681
9600,525,70,144149,120660
9603,527,70,144092,120636
9605,528,70,144034,120619
9608,530,70,143978,120607
9610,531,70,143922,120584
9613,532,70,143867,120557
9615,534,70,143820,120546
9618,535,70,143769,120530
9620,537,70,143732,120515
9622,538,70,143694,120504
9625,540,70,143664,120492
9627,542,70,143629,120479
9630,543,70,143599,120471
9632,545,70,143564,120457
9635,547,70,143537,120449
9637,548,70,143508,120435
9639,549,70,143482,120419
9643,551,70,143450,120410
9645,552,70,143423,120408
9648,552,70,143415,120396
9650,553,70,143393,120393
9653,554,70,143379,120388
9655,554,70,143359,120387
9658,554,70,143341,120372
9660,554,70,143333,120376
9662,554,70,143325,120374
9665,552,70,143311,120377
9667,550,70,143306,120370
9670,548,70,143307,120368
9672,546,70,143293,120362
9675,543,70,143291,120365
9677,540,70,143283,120363
9679,536,70,143287,120367
9682,529,70,143282,120373
9684,526,70,143283,120370
9688,523,70,143271,120369
9690,519,69,143273,120361
9693,514,70,143276,120367
9695,508,69,143283,120367
9698,504,70,143288,120372
9700,501,69,143286,120370
9702,497,69,143290,120374
9705,493,69,143291,120375
9707,488,69,143292,120375
9710,485,69,143295,120376
9712,482,69,143293,120375
9715,478,69,143300,120380
9717,476,69,143315,120378
9719,474,69,143307,120384
9722,471,69,143311,120382
9724,470,69,143315,120374
9728,469,69,143320,120385
9730,469,69,143325,120384
9733,468,69,143329,120385
9735,467,69,143337,120390
9738,467,69,143338,120389
9740,466,69,143336,120382
9742,465,69,143329,120382
9745,465,69,143329,120387
9747,465,69,143333,120385
9750,466,69,143333,120390
9752,467,69,143329,120383
9755,467,69,143318,120383
9757,467,69,143324,120379
9759,468,69,143319,120371
9762,469,69,143314,120376
9764,469,69,143319,120373
9767,470,69,143311,120371
9769,470,69,143305,120373
9773,472,69,143299,120368
9775,473,69,143293,120361
9778,473,68,143293,120360
9780,474,68,143275,120356
9782,475,69,143275,120359
9785,475,68,143269,120352
9787,476,68,143252,120350
9790,477,68,143247,120351
9792,479,68,143247,120344
9795,479,68,143247,120342
9797,480,68,143220,120342
9799,481,68,143226,120342
9802,482,68,143223,120346
9804,482,68,143221,120341
9807,484,68,143209,120339
9809,484,69,143209,120331
9812,485,68,143200,120329
9815,486,68,143196,120331
9818,486,68,143196,120331
9820,487,68,143191,120328
9822,488,68,143183,120328
9825,488,68,143196,120326
9827,489,68,143196,120325
9830,489,68,143182,120327
9832,490,68,143180,120327
9835,491,68,143187,120322
9837,492,68,143196,120326
9839,493,68,143196,120324
9842,493,68,143202,120339
9844,494,68,143199,120339
9847,494,68,143211,120346
9849,494,68,143211,120342
9852,494,68,143230,120344
9854,495,68,143242,120344
9858,496,68,143252,120356
9860,497,68,143266,120358
9862,497,68,143266,120359
9865,498,68,143279,120366
9867,499,68,143291,120366
9870,499,68,143304,120375
9872,500,68,143304,120378
9875,500,68,143326,120374
9877,500,68,143337,120374
9879,501,68,143343,120382
9882,501,68,143358,120386
9884,501,68,143367,120386
9887,502,68,143380,120398
9889,502,68,143380,120401
9892,502,68,143387,120406
9894,503,68,143406,120406
9897,503,68,143402,120403
9900,504,68,143402,120412
9902,504,68,143418,120412
9905,505,67,143432,120412
9907,506,68,143446,120410
9910,507,67,143443,120419
9912,508,67,143443,120423
9915,509,68,143451,120420
9917,509,68,143458,120420
9919,509,67,143459,120425
9922,511,68,143459,120418
9924,513,67,143473,120425
9927,514,68,143464,120425
9929,515,67,143485,120431
9932,516,67,143485,120428
9934,517,67,143482,120428
9937,516,67,143496,120436
9939,515,67,143496,120432
9942,514,67,143487,120440
9945,514,67,143497,120440
9947,513,67,143493,120438
9950,512,67,143493,120438
9952,511,67,143500,120439
9955,510,67,143494,120439
9957,509,67,143503,120437
9959,508,67,143503,120441
9962,507,67,143503,120432
9964,507,67,143509,120436
9967,507,67,143498,120436
9969,506,67,143504,120436
9972,504,67,143504,120439
9974,504,67,143514,120439
9977,503,67,143514,120444
9979,502,67,143499,120449
9981,502,67,143505,120449
9985,502,67,143519,120436
9987,502,67,143516,120444
9990,502,67,143516,120445
9992,502,67,143517,120439
9995,502,67,143505,120439
9997,502,67,143513,120440
9999,502,67,143513,120448
10002,502,67,143522,120442
10004,502,67,143525,120442
10007,502,67,143529,120450
10009,502,67,143529,120454
10012,502,67,143530,120441
10014,502,67,143540,120448
10017,503,67,143539,120448
10019,502,67,143539,120455
10021,503,67,143551,120455
10024,502,67,143548,120453
10027,503,67,143550,120457
10030,503,67,143550,120460
10032,503,66,143557,120467
10035,503,67,143565,120464
10037,503,67,143553,120463
10039,503,67,143563,120462
10042,503,67,143572,120468
10044,504,66,143573,120456
10047,504,67,143583,120466
10049,504,67,143583,120469
10052,504,67,143578,120469
10054,505,66,143571,120466
10057,505,66,143609,120471
10059,505,66,143591,120477
10061,506,66,143596,120468
10064,505,66,143594,120469
10066,505,66,143610,120470
10070,505,66,143612,120474
10072,506,66,143615,120477
10075,506,66,143610,120484
10077,506,66,143613,120481
10079,506,66,143624,120478
10082,506,66,143634,120483
10084,507,66,143647,120482
10087,507,66,143635,120492
10089,507,66,143655,120488
10092,507,66,143658,120487
10094,508,66,143663,120491
10097,508,66,143664,120494
10099,508,66,143669,120496
10101,508,66,143667,120497
10104,508,66,143668,120494
10106,508,66,143679,120500
10109,508,66,143673,120502
10112,508,66,143686,120497
10115,508,66,143698,120504
10117,508,66,143704,120507
10119,508,66,143704,120504
10122,508,66,143714,120507
10124,508,66,143719,120507
10127,508,66,143712,120504
10129,508,66,143710,120511
10132,508,66,143724,120513
10134,508,66,143724,120505
10137,508,66,143730,120516
10139,508,66,143738,120509
10141,508,66,143742,120519
10144,509,66,143756,120519
10146,509,66,143765,120520
10149,509,66,143761,120525
10151,509,66,143760,120534
10155,509,66,143763,120529
10157,509,66,143769,120533
10159,509,66,143768,120534
10162,509,66,143779,120539
10164,509,66,143786,120540
10167,509,66,143793,120530
10169,509,66,143808,120543
10172,509,66,143813,120542
10174,509,66,143814,120544
10177,509,66,143804,120547
10179,509,66,143811,120552
10181,509,66,143821,120547
10184,509,66,143827,120551
10186,509,66,143832,120554
10189,509,66,143840,120555
10191,509,66,143839,120561
10194,509,66,143837,120561
10196,509,66,143848,120562
10199,509,66,143852,120566
10202,509,66,143856,120560
10204,509,65,143859,120562
10207,509,65,143867,120567
10209,509,65,143865,120577
10212,509,66,143871,120580
10214,509,65,143874,120578
10217,509,66,143888,120570
10219,510,65,143882,120581
10221,510,65,143902,120581
10224,510,66,143898,120583
10226,510,65,143893,120579
10229,509,65,143907,120578
10231,509,65,143909,120583
10234,509,65,143916,120580
10236,510,65,143916,120579
10238,510,65,143911,120581
10242,510,65,143924,120590
10244,510,65,143922,120592
10247,510,65,143930,120589
10249,511,65,143934,120595
10252,511,65,143949,120598
10254,511,65,143952,120604
10257,511,65,143955,120599
10259,510,65,143965,120602
10261,511,65,143965,120605
10264,511,65,143976,120602
10266,510,65,143974,120605
10269,511,65,143977,120608
10271,511,65,143993,120606
10274,511,65,143993,120612
10276,512,65,143994,120609
10278,512,65,143989,120609
10281,511,65,143993,120611
10284,512,65,143999,120611
10287,511,65,144008,120614
10289,511,65,144010,120613
10292,512,65,144012,120611
10294,512,65,144022,120614
10297,512,65,144022,120613
10299,512,65,144023,120613
10301,512,65,144022,120613
10304,512,65,144034,120617
10306,512,65,144038,120616
10309,512,65,144038,120623
10311,512,65,144038,120623
10314,512,65,144050,120623
10316,512,65,144056,120629
10318,512,65,144059,120631
10321,512,65,144058,120629
10323,512,65,144058,120632
10327,512,65,144064,120632
10329,512,65,144066,120629
10332,512,65,144066,120635
10334,512,65,144072,120639
10337,513,65,144078,120639
10339,512,65,144076,120638
10341,512,65,144076,120636
10344,512,65,144083,120643
10346,512,65,144088,120643
10349,512,65,144095,120635
10351,512,65,144093,120643
10354,512,65,144088,120643
10356,512,65,144103,120647
10358,512,65,144103,120645
10361,512,65,144102,120649
10363,512,65,144110,120649
10366,512,65,144107,120642
10369,512,65,144107,120641
10372,512,65,144117,120655
10374,512,65,144127,120655
10377,512,65,144138,120653
10379,512,65,144127,120655
10381,511,65,144127,120655
10384,511,65,144135,120656
10386,512,65,144142,120656
10389,512,65,144144,120654
10391,511,65,144144,120651
10394,511,65,144138,120658
10396,511,65,144145,120658
10398,511,65,144153,120661
10401,512,65,144153,120659
10403,512,65,144153,120667
10406,511,65,144157,120668
10408,511,65,144163,120668
10412,510,65,144164,120663
10414,511,65,144164,120674
10417,511,65,144171,120678
10419,511,65,144174,120678
10421,511,65,144187,120672
10424,511,65,144182,120668
10426,511,65,144181,120668
10429,511,65,144181,120673
10431,511,65,144172,120678
10434,512,65,144199,120678
10436,511,65,144199,120679
10438,512,65,144205,120675
10441,512,65,144201,120675
10443,512,65,144217,120674
10446,511,65,144207,120689
10448,511,65,144215,120689
10451,511,65,144215,120681
10454,511,65,144222,120686
10457,511,65,144224,120686
10459,511,65,144224,120690
10461,511,65,144242,120687
10464,511,65,144242,120687
10466,511,65,144256,120691
10469,511,65,144256,120699
10471,511,65,144251,120699
10474,511,65,144251,120698
10476,511,64,144217,120695
10478,511,65,144262,120695
10481,511,65,144262,120702
10483,512,65,144268,120694
10486,512,65,144268,120694
10488,512,65,144282,120704
10491,511,65,144282,120707
10493,511,65,144290,120707
10497,511,64,144290,120709
10499,510,65,144287,120710
10501,510,65,144296,120710
10504,510,65,144307,120718
10506,510,65,144310,120716
10509,510,65,144310,120714
10511,510,64,144312,120710
10514,510,65,144311,120710
10516,510,65,144316,120713
10518,510,65,144316,120720
10521,510,65,144314,120728
10523,510,65,144326,120728
10526,510,64,144335,120732
10528,510,64,144331,120725
10531,510,65,144331,120728
10533,510,64,144335,120729
10536,511,64,144336,120729
10539,511,64,144336,120728
10541,511,64,144340,120728
10544,511,64,144353,120728
10546,511,64,144359,120733
10549,510,64,144359,120733
10551,511,64,144358,120731
10554,511,65,144357,120731
10556,511,64,144366,120738
10558,511,64,144368,120740
10561,510,64,144371,120735
10563,510,64,144372,120744
10566,510,64,144382,120741
10568,510,64,144382,120745
10571,510,64,144381,120745
10573,510,64,144382,120742
10576,511,64,144410,120750
10578,510,64,144389,120751
10580,510,64,144397,120748
10584,510,64,144401,120751
10586,511,64,144411,120754
10589,510,64,144418,120750
10591,510,64,144413,120754
10594,510,64,144411,120760
10596,510,64,144412,120759
10598,510,64,144416,120753
10601,510,64,144413,120756
10603,511,64,144423,120755
10606,510,64,144416,120757
10608,511,64,144428,120756
10611,510,64,144431,120755
10613,510,64,144438,120762
10616,510,64,144441,120762
10618,510,64,144438,120758
10620,510,64,144434,120759
10624,510,64,144436,120757
10626,510,64,144435,120760
10629,510,64,144431,120761
10631,510,64,144442,120762
10634,510,64,144458,120761
10636,510,64,144460,120756
10638,510,64,144462,120763
10641,511,64,144460,120762
10643,510,64,144468,120767
10646,510,64,144458,120764
10648,510,64,144459,120773
10651,510,64,144469,120776
10653,510,64,144464,120775
10656,510,64,144474,120771
10658,511,64,144480,120764
10660,510,64,144471,120771
10663,510,64,144482,120769
10665,510,64,144488,120775
10669,510,64,144484,120769
10671,510,64,144481,120771
10674,509,64,144486,120778
10676,509,64,144479,120781
10678,510,64,144487,120777
10681,510,64,144481,120776
10683,510,64,144479,120778
10686,510,64,144489,120768
10688,510,64,144501,120772
10691,509,64,144497,120775
10693,509,64,144511,120781
10696,509,64,144503,120784
10698,510,64,144505,120785
10700,510,64,144507,120779
10703,510,64,144506,120778
10705,510,64,144505,120776
10708,510,64,144510,120781
10711,510,64,144505,120793
10714,511,64,144523,120788
10716,511,64,144517,120791
10718,511,64,144517,120794
10721,512,64,144523,120801
10723,512,64,144515,120794
10726,512,64,144525,120794
10728,511,64,144526,120794
10731,511,64,144531,120800
10733,512,64,144535,120795
10736,513,64,144543,120800
10738,513,64,144536,120805
10740,514,64,144542,120799
10743,513,64,144546,120799
10745,510,64,144535,120796
10748,506,64,144539,120800
10750,499,64,144546,120801
10754,498,64,144547,120801
10756,498,64,144551,120806
10758,500,64,144556,120805
10761,504,64,144556,120806
10763,513,64,144548,120801
10766,530,64,144555,120784
10768,543,64,144569,120805
10771,557,64,144561,120814
10773,572,64,144570,120802
10776,585,64,144564,120805
10778,616,64,144567,120811
10780,632,64,144576,120808
10783,643,64,144575,120813
10785,652,64,144570,120809
10788,653,64,144574,120806
10790,644,64,144573,120812
10793,634,64,144573,120820
10796,617,64,144583,120814
10798,604,64,144583,120814
10801,568,64,144585,120826
10803,548,64,144587,120814
10806,530,64,144593,120816
10808,506,64,144589,120819
10811,493,64,144598,120818
10813,473,64,144594,120817
10816,467,64,144594,120819
10818,464,64,144605,120816
10820,464,64,144596,120816
10823,470,64,144604,120817
10825,475,64,144603,120819
10828,479,64,144603,120810
10830,482,64,144605,120821
10833,483,64,144611,120821
10835,482,64,144611,120825
10838,482,64,144604,120820
10841,481,64,144613,120818
10843,481,64,144613,120827
